#Acq. time (s)=	10
#Accumulations=	2
#Range (cm-¹)=	-20...3600
#Windows=	2
#Auto scanning=	Off
#Autofocus=	Off
#Macrospot=	Off
#AutoExposure=	Off
#Spike filter=	Multiple accum.
#Delay time (s)=	0
#Binning=	1
#Readout mode=	Signal
#DeNoise=	Off
#ICS correction=	Off
#Dark correction=	Off
#Inst. Process=	Off
#Detector temperature (°C)=	-75.13
#Instrument=	LabRAM HR Evol
#Detector=	Synapse
#Objective=	X50_VIS_LWD
#Grating=	600 (500nm)
#ND Filter=	100%
#Laser (nm)=	488 
#Hole=	49.98
#Range=	Visible
#StageXY=	Marzhauser
#StageZ=	Marzhauser
#X (µm)=	0
#Y (µm)=	0
#Z (µm)=	0
#Full time(s)=	53
#Project=	2021-4-13_Andrew_Fertilizer
#Sample=	
#Site=	
#Title=	_2021_04_13_15_19_13_Gro Fine_30-0-4_488 nm_600 (500nm)_X50_VIS_LWD_100%_
#Remark=	
#Date=	13.04.2021 15:19
#Acquired=	13.04.2021 15:19:32
-19.9276	1
-18.7746	-6
-17.6218	9
-16.469	10
-15.3164	9
-14.1639	9
-13.0115	5
-11.8593	8
-10.7072	11
-9.55521	13
-8.40337	20
-7.25165	39
-6.10007	153
-4.94861	301
-3.79728	346
-2.64609	257
-1.49502	84
-0.344078	23
0.805451	9
1.95613	7
3.10668	8
4.25711	6
5.4074	10
6.55756	9
7.7076	9
8.8575	6
10.0073	9
11.1569	7
12.3064	9
13.4558	4
14.6038	10
15.753	11
16.902	10
18.0508	14
19.1996	9
20.3482	13
21.4967	11
22.645	13
23.7933	17
24.9401	11
26.0881	16
27.2359	17
28.3836	25
29.5312	25
30.6787	53
31.826	87
32.9719	157
34.119	191
35.2659	266
36.4127	426
37.5594	557
38.706	673
39.8511	789
40.9974	818
42.1436	885
43.2896	901
44.4356	882
45.5813	880
46.7257	865
47.8713	859
49.0167	860
50.1619	814
51.3071	808
52.4508	759
53.5957	802
54.7405	772
55.8851	798
57.0283	793
58.1727	811
59.317	824
60.4611	853
61.6051	904
62.7477	1013
63.8914	1092
65.035	1261
66.1785	1264
67.3206	1308
68.4638	1283
69.6069	1323
70.7498	1298
71.8914	1264
73.0341	1309
74.1767	1226
75.3192	1246
76.4602	1196
77.6024	1127
78.7445	1063
79.8852	1120
81.027	1139
82.1687	1096
83.3102	1078
84.4504	1069
85.5917	1032
86.7329	1022
87.8727	1006
89.0136	953
90.1544	993
91.2938	954
92.4343	884
93.5747	915
94.7137	897
95.8539	865
96.9939	831
98.1326	848
99.2723	819
100.412	792
101.55	782
102.69	769
103.829	786
104.967	730
106.106	754
107.245	731
108.382	672
109.521	682
110.658	657
111.796	647
112.935	653
114.072	655
115.21	610
116.347	608
117.484	607
118.621	611
119.758	609
120.895	598
122.032	606
123.168	571
124.305	603
125.441	561
126.577	560
127.713	553
128.849	564
129.986	548
131.121	509
132.257	556
133.391	522
134.527	518
135.662	510
136.797	524
137.931	496
139.067	501
140.202	534
141.336	517
142.471	527
143.604	528
144.739	466
145.872	478
147.007	478
148.14	483
149.274	484
150.407	485
151.541	451
152.673	460
153.807	464
154.939	475
156.073	455
157.205	502
158.338	432.995
159.47	434.99
160.603	453.985
161.734	459.979
162.867	436.974
163.998	452.969
165.131	406.964
166.262	384.959
167.394	437.954
168.525	427.949
169.655	416.943
170.787	406.938
171.917	437.933
173.049	429.928
174.179	425.923
175.31	378.918
176.44	402.913
177.571	416.907
178.701	387.902
179.831	374.897
180.961	379.892
182.091	391.887
183.221	358.882
184.35	378.877
185.479	355.871
186.609	368.866
187.738	371.861
188.867	351.856
189.996	357.851
191.124	352.846
192.253	345.841
193.381	334.835
194.511	333.83
195.638	315.825
196.766	329.82
197.895	336.815
199.022	335.81
200.149	321.804
201.278	302.799
202.405	312.794
203.533	318.789
204.66	318.784
205.786	333.779
206.914	301.774
208.041	306.768
209.167	298.763
210.294	276.758
211.42	286.753
212.546	317.748
213.673	285.743
214.799	279.738
215.924	296.732
217.051	298.727
218.176	291.722
219.301	282.717
220.426	257.712
221.553	261.707
222.677	272.702
223.802	262.696
224.928	265.691
226.052	262.686
227.176	265.681
228.302	244.676
229.426	239.671
230.55	266.666
231.674	249.66
232.798	243.655
233.922	240.65
235.045	260.645
236.169	225.64
237.293	219.635
238.416	263.63
239.539	233.624
240.662	229.619
241.786	245.614
242.908	218.609
244.031	235.604
245.153	219.599
246.276	202.594
247.398	214.588
248.52	203.583
249.642	227.578
250.764	223.573
251.886	213.568
253.008	210.563
254.129	198.558
255.25	222.552
256.371	193.547
257.493	186.542
258.614	210.537
259.735	228.532
260.855	201.527
261.976	189.522
263.097	199.516
264.218	209.511
265.338	206.506
266.458	172.501
267.577	196.496
268.697	193.491
269.818	181.486
270.937	189.48
272.056	190.475
273.176	169.47
274.295	192.465
275.414	165.46
276.532	190.455
277.652	169.449
278.771	195.444
279.889	173.439
281.008	197.434
282.126	174.429
283.244	185.424
284.362	160.419
285.48	186.413
286.599	174.408
287.716	192.403
288.834	170.398
289.951	159.393
291.068	185.388
292.185	177.383
293.302	162.377
294.419	177.372
295.536	161.367
296.652	159.362
297.769	166.357
298.885	180.352
300.002	169.347
301.118	148.341
302.234	172.336
303.35	166.331
304.466	169.326
305.582	170.321
306.697	163.316
307.812	163.311
308.928	157.305
310.043	169.3
311.158	165.295
312.273	172.29
313.387	149.285
314.502	159.28
315.616	167.275
316.731	161.269
317.845	171.264
318.959	147.259
320.073	164.254
321.187	161.249
322.301	162.244
323.414	160.239
324.528	157.233
325.641	162.228
326.754	176.223
327.867	151.218
328.98	139.213
330.093	160.208
331.206	172.203
332.319	158.197
333.431	151.192
334.544	157.187
335.656	144.182
336.768	141.177
337.88	160.172
338.992	150.167
340.104	170.161
341.215	160.156
342.326	160.151
343.437	146.146
344.548	163.141
345.66	146.136
346.771	138.131
347.882	139.125
348.992	148.12
350.103	163.115
351.214	168.11
352.324	166.105
353.434	165.1
354.544	121.094
355.653	175.089
356.763	163.084
357.873	155.079
358.983	150.074
360.092	172.069
361.202	156.064
362.311	150.058
363.42	163.053
364.528	156.048
365.637	156.043
366.746	166.038
367.855	165.033
368.963	160.028
370.072	147.022
371.18	173.017
372.287	166.012
373.395	159.007
374.503	149.002
375.611	180.997
376.719	160.992
377.826	180.986
378.933	170.981
380.04	165.976
381.147	173.971
382.254	169.966
383.361	187.961
384.467	174.956
385.574	185.95
386.68	159.945
387.787	173.94
388.893	165.935
389.998	171.93
391.105	161.925
392.211	171.92
393.316	173.914
394.421	156.909
395.527	162.904
396.632	155.899
397.738	172.894
398.843	175.889
399.947	172.884
401.052	190.878
402.157	179.873
403.262	149.868
404.365	172.863
405.47	175.858
406.574	187.853
407.677	147.848
408.782	178.842
409.886	155.837
410.99	177.832
412.092	162.827
413.196	158.822
414.3	171.817
415.403	177.812
416.505	168.806
417.608	177.801
418.711	180.796
419.813	145.791
420.916	162.786
422.019	187.781
423.12	168.776
424.223	178.77
425.325	176.765
426.426	163.76
427.528	168.755
428.63	183.75
429.731	172.745
430.833	179.74
431.935	167.734
433.035	179.729
434.136	184.724
435.238	179.719
436.338	180.714
437.439	178.709
438.54	161.703
439.639	168.698
440.74	154.693
441.839	162.688
442.94	169.683
444.04	157.678
445.139	170.673
446.239	153.667
447.338	179.662
448.438	173.657
449.537	161.652
450.636	179.647
451.735	186.642
452.833	166.637
453.933	166.631
455.032	171.626
456.13	179.621
457.228	177.616
458.326	151.611
459.425	170.606
460.522	156.601
461.62	161.595
462.719	177.59
463.816	161.585
464.914	161.58
466.01	182.575
467.108	182.57
468.205	154.565
469.302	159.559
470.398	155.554
471.496	176.549
472.592	180.544
473.689	172.539
474.785	180.534
475.881	167.529
476.977	169.523
478.073	160.518
479.169	150.513
480.265	160.508
481.36	160.503
482.456	183.498
483.551	175.493
484.647	178.487
485.741	167.482
486.837	156.477
487.931	166.472
489.027	197.467
490.121	170.462
491.216	153.457
492.31	179.451
493.405	190.446
494.498	183.441
495.593	167.436
496.686	175.431
497.78	182.426
498.874	177.421
499.967	183.415
501.061	181.41
502.154	170.405
503.248	180.4
504.34	163.395
505.433	178.39
506.526	205.385
507.618	182.379
508.711	179.374
509.803	172.369
510.896	192.364
511.988	164.359
513.08	193.354
514.172	187.348
515.264	203.343
516.355	157.338
517.447	194.333
518.538	193.328
519.63	179.323
520.721	192.318
521.811	188.312
522.903	175.307
523.993	195.302
525.084	188.297
526.175	182.292
527.265	191.287
528.355	174.282
529.446	179.276
530.535	157.271
531.625	178.266
532.716	201.261
533.805	197.256
534.894	196.251
535.984	182.246
537.073	167.24
538.162	182.235
539.252	183.23
540.341	181.225
541.429	174.22
542.519	175.215
543.607	179.21
544.695	188.204
545.783	191.199
546.872	187.194
547.96	185.189
549.047	175.184
550.136	167.179
551.223	178.174
552.311	181.168
553.398	179.163
554.486	175.158
555.573	186.153
556.66	186.148
557.747	172.143
558.834	187.138
559.921	172.132
561.007	193.127
562.093	163.122
563.181	189.117
564.267	188.112
565.352	181.107
566.438	168.102
567.524	169.096
568.61	168.091
569.696	184.086
570.781	193.081
571.866	168.076
572.951	180.071
574.037	160.066
575.122	178.06
576.207	180.055
577.291	187.05
578.376	172.045
579.461	193.04
580.545	179.035
581.63	183.03
582.714	179.024
583.797	174.019
584.881	187.014
585.966	196.009
587.049	197.004
588.133	187.999
589.216	169.993
590.299	178.988
591.382	167.983
592.465	177.978
593.548	168.973
594.632	188.968
595.714	183.963
596.797	187.957
597.879	188.952
598.961	182.947
600.043	177.942
601.125	178.937
602.207	174.932
603.289	172.927
604.372	166.921
605.453	174.916
606.534	162.911
607.616	172.906
608.697	172.901
609.778	177.896
610.859	179.891
611.939	167.885
613.02	143.88
614.101	182.875
615.181	176.87
616.261	184.865
617.341	153.86
618.422	175.855
619.502	155.849
620.581	165.844
621.662	187.839
622.742	169.834
623.821	169.829
624.901	166.824
625.98	166.819
627.059	166.813
628.138	180.808
629.217	176.803
630.296	167.798
631.375	161.793
632.453	173.788
633.531	181.783
634.61	173.777
635.688	174.772
636.766	158.767
637.844	191.762
638.922	153.757
640	170.752
641.077	167.747
642.154	153.741
643.231	151.736
644.308	164.731
645.385	158.726
646.462	179.721
647.539	163.716
648.616	159.711
649.693	167.705
650.769	163.7
651.846	158.695
652.922	156.69
653.998	186.685
655.074	158.68
656.15	176.674
657.226	155.669
658.301	161.664
659.376	174.659
660.452	169.654
661.527	165.649
662.602	164.644
663.678	172.638
664.753	157.633
665.828	179.628
666.902	163.623
667.977	172.618
669.051	187.613
670.125	172.608
671.199	178.602
672.274	163.597
673.348	179.592
674.422	177.587
675.496	180.582
676.568	172.577
677.642	165.572
678.715	187.566
679.789	153.561
680.862	158.556
681.935	175.551
683.007	174.546
684.08	169.541
685.153	185.536
686.226	162.53
687.298	197.525
688.369	169.52
689.442	170.515
690.514	172.51
691.586	178.505
692.658	156.5
693.729	162.494
694.801	169.489
695.872	187.484
696.944	168.479
698.015	174.474
699.085	169.469
700.157	176.464
701.228	184.458
702.299	179.453
703.368	186.448
704.439	178.443
705.51	171.438
706.58	171.433
707.649	181.428
708.72	179.422
709.79	176.417
710.86	158.412
711.929	159.407
712.998	182.402
714.068	170.397
715.137	174.392
716.206	172.386
717.275	185.381
718.345	146.376
719.413	177.371
720.482	174.366
721.55	172.361
722.618	176.356
723.687	198.35
724.755	176.345
725.823	161.34
726.891	143.335
727.959	175.33
729.026	161.325
730.094	176.32
731.162	173.314
732.228	190.309
733.296	187.304
734.363	180.299
735.43	173.294
736.497	182.289
737.564	181.283
738.63	177.278
739.697	164.273
740.762	167.268
741.829	163.263
742.896	167.258
743.961	185.253
745.027	186.247
746.094	177.242
747.159	152.237
748.225	160.232
749.289	167.227
750.355	188.222
751.421	172.217
752.485	166.211
753.55	174.206
754.615	177.201
755.68	152.196
756.744	154.191
757.809	167.186
758.874	185.181
759.937	175.175
761.002	177.17
762.065	180.165
763.129	174.16
764.193	175.155
765.257	188.15
766.32	190.145
767.384	163.139
768.446	176.134
769.51	188.129
770.572	178.124
771.636	156.119
772.699	172.114
773.761	170.109
774.824	173.103
775.886	181.098
776.949	185.093
778.011	151.088
779.073	178.083
780.135	167.078
781.196	184.073
782.258	167.067
783.319	178.062
784.382	175.057
785.442	179.052
786.504	162.047
787.565	201.042
788.626	181.037
789.687	171.031
790.748	179.026
791.808	174.021
792.87	175.016
793.929	179.011
794.989	162.006
796.05	169.001
797.11	178.995
798.17	181.99
799.23	177.985
800.29	182.98
801.349	168.975
802.408	174.97
803.468	175.965
804.527	180.959
805.587	181.954
806.645	172.949
807.704	168.944
808.763	173.939
809.821	174.934
810.879	190.928
811.938	158.923
812.996	173.918
814.055	193.913
815.113	177.908
816.17	158.903
817.229	168.898
818.286	169.892
819.343	169.887
820.402	183.882
821.459	163.877
822.515	155.872
823.573	171.867
824.63	182.862
825.686	168.856
826.744	173.851
827.8	192.846
828.856	166.841
829.914	165.836
830.969	186.831
832.025	168.826
833.082	170.82
834.138	179.815
835.193	153.81
836.248	184.805
837.305	181.8
838.36	165.795
839.415	191.79
840.471	171.784
841.526	196.779
842.581	178.774
843.635	164.769
844.691	183.764
845.745	186.759
846.799	176.754
847.853	182.748
848.908	183.743
849.962	178.738
851.016	188.733
852.07	171.728
853.124	172.723
854.178	179.718
855.231	169.712
856.284	174.707
857.337	192.702
858.392	164.697
859.444	169.692
860.497	190.687
861.55	162.682
862.602	159.676
863.656	193.671
864.708	189.666
865.76	173.661
866.813	172.656
867.864	163.651
868.916	165.646
869.969	182.64
871.021	163.635
872.072	161.63
873.124	181.625
874.175	163.62
875.226	153.615
876.278	154.61
877.329	165.604
878.38	147.599
879.431	188.594
880.481	168.589
881.532	155.584
882.582	169.579
883.633	160.574
884.684	157.568
885.734	155.563
886.784	183.558
887.834	164.553
888.883	169.548
889.933	139.543
890.982	161.537
892.032	177.532
893.081	183.527
894.13	169.522
895.179	168.517
896.229	171.512
897.278	180.507
898.327	160.501
899.375	188.496
900.424	163.491
901.472	156.486
902.52	182.481
903.569	174.476
904.617	173.471
905.664	195.465
906.712	192.46
907.76	162.455
908.808	168.45
909.855	173.445
910.902	158.44
911.95	179.435
912.997	153.429
914.044	158.424
915.091	164.419
916.137	185.414
917.184	185.409
918.231	195.404
919.277	182.399
920.323	185.393
921.37	191.388
922.416	174.383
923.462	166.378
924.508	151.373
925.553	168.368
926.599	167.363
927.645	177.357
928.69	169.352
929.735	159.347
930.781	177.342
931.826	170.337
932.871	154.332
933.916	196.327
934.959	177.321
936.004	171.316
937.048	182.311
938.093	168.306
939.137	168.301
940.181	165.296
941.226	184.291
942.269	193.285
943.313	171.28
944.357	174.275
945.401	180.27
946.443	175.265
947.487	156.26
948.53	175.255
949.573	191.249
950.616	186.244
951.659	167.239
952.702	177.234
953.744	190.229
954.786	171.224
955.829	191.219
956.871	182.213
957.914	159.208
958.956	183.203
959.998	169.198
961.039	183.193
962.082	157.188
963.122	193.182
964.163	182.177
965.206	164.172
966.246	190.167
967.288	186.162
968.328	197.157
969.368	190.152
970.411	199.146
971.45	199.141
972.492	191.136
973.532	204.131
974.571	201.126
975.613	184.121
976.652	212.116
977.693	237.11
978.732	197.105
979.771	223.1
980.812	228.095
981.851	220.09
982.889	243.085
983.93	253.08
984.968	259.074
986.009	258.069
987.047	292.064
988.085	301.059
989.125	316.054
990.162	334.049
991.2	343.044
992.24	361.038
993.277	391.033
994.315	450.028
995.354	401.023
996.391	461.018
997.43	480.013
998.467	497.008
999.504	493.002
1000.54	520.997
1001.58	550.992
1002.62	547.987
1003.65	509.982
1004.69	490.977
1005.73	469.972
1006.76	472.966
1007.8	420.961
1008.84	409.956
1009.87	354.951
1010.91	354.946
1011.95	328.941
1012.98	305.936
1014.02	303.93
1015.05	274.925
1016.09	265.92
1017.13	236.915
1018.16	228.91
1019.19	246.905
1020.23	224.9
1021.27	231.894
1022.3	205.889
1023.34	235.884
1024.37	219.879
1025.4	228.874
1026.44	230.869
1027.47	184.864
1028.51	183.858
1029.54	212.853
1030.58	208.848
1031.61	192.843
1032.64	206.838
1033.68	189.833
1034.71	201.827
1035.75	185.822
1036.78	194.817
1037.81	192.812
1038.85	196.807
1039.88	220.802
1040.91	204.797
1041.95	216.791
1042.98	202.786
1044.01	196.781
1045.04	194.776
1046.08	188.771
1047.11	195.766
1048.14	180.761
1049.17	191.755
1050.2	209.75
1051.23	204.745
1052.27	168.74
1053.3	193.735
1054.33	187.73
1055.36	190.725
1056.39	177.719
1057.42	208.714
1058.45	172.709
1059.49	190.704
1060.52	200.699
1061.55	199.694
1062.58	213.689
1063.61	184.683
1064.64	192.678
1065.67	194.673
1066.7	183.668
1067.73	203.663
1068.76	199.658
1069.79	189.653
1070.82	184.647
1071.85	200.642
1072.88	198.637
1073.91	195.632
1074.93	200.627
1075.96	188.622
1076.99	189.617
1078.02	211.611
1079.05	183.606
1080.08	200.601
1081.11	199.596
1082.13	189.591
1083.16	192.586
1084.19	175.581
1085.22	175.575
1086.25	198.57
1087.28	186.565
1088.3	203.56
1089.33	189.555
1090.36	212.55
1091.39	179.545
1092.41	183.539
1093.44	209.534
1094.47	189.529
1095.5	173.524
1096.52	199.519
1097.55	200.514
1098.57	194.508
1099.6	189.503
1100.63	200.498
1101.65	194.493
1102.68	194.488
1103.71	191.483
1104.73	183.478
1105.76	173.472
1106.78	199.467
1107.81	210.462
1108.83	186.457
1109.86	212.452
1110.88	194.447
1111.91	199.442
1112.93	194.436
1113.96	199.431
1114.98	190.426
1116.01	174.421
1117.03	176.416
1118.06	190.411
1119.08	190.406
1120.11	198.4
1121.13	193.395
1122.15	203.39
1123.18	191.385
1124.2	198.38
1125.22	178.375
1126.25	165.37
1127.27	177.364
1128.3	193.359
1129.32	216.354
1130.34	194.349
1131.36	185.344
1132.39	208.339
1133.41	219.334
1134.43	208.328
1135.45	197.323
1136.48	203.318
1137.5	200.313
1138.52	202.308
1139.55	228.303
1140.57	200.298
1141.59	213.292
1142.61	212.287
1143.63	223.282
1144.65	210.277
1145.67	196.272
1146.7	204.267
1147.72	213.262
1148.74	207.256
1149.76	215.251
1150.78	206.246
1151.8	228.241
1152.82	216.236
1153.84	215.231
1154.86	223.226
1155.88	216.22
1156.9	229.215
1157.92	228.21
1158.94	232.205
1159.96	216.2
1160.98	203.195
1162	235.19
1163.02	212.184
1164.04	209.179
1165.06	214.174
1166.08	212.169
1167.1	212.164
1168.12	214.159
1169.14	214.154
1170.15	208.148
1171.17	215.143
1172.19	205.138
1173.21	193.133
1174.23	202.128
1175.25	178.123
1176.26	210.117
1177.28	202.112
1178.3	185.107
1179.32	202.102
1180.33	193.097
1181.35	194.092
1182.37	205.087
1183.39	186.081
1184.4	200.076
1185.42	186.071
1186.44	202.066
1187.45	188.061
1188.47	205.056
1189.49	180.051
1190.5	188.045
1191.52	194.04
1192.54	189.035
1193.55	190.03
1194.57	188.025
1195.59	177.02
1196.6	200.015
1197.61	197.009
1198.63	196.004
1199.65	193.999
1200.66	204.994
1201.68	198.989
1202.69	191.984
1203.71	188.979
1204.72	204.973
1205.74	186.968
1206.75	196.963
1207.77	196.958
1208.78	182.953
1209.8	179.948
1210.81	196.943
1211.82	193.937
1212.84	199.932
1213.85	186.927
1214.86	182.922
1215.88	189.917
1216.89	184.912
1217.91	199.907
1218.92	182.901
1219.93	187.896
1220.95	197.891
1221.96	201.886
1222.97	178.881
1223.98	201.876
1225	203.871
1226.01	192.865
1227.02	188.86
1228.03	202.855
1229.05	211.85
1230.06	202.845
1231.07	184.84
1232.08	200.835
1233.09	199.829
1234.11	183.824
1235.12	191.819
1236.13	172.814
1237.14	204.809
1238.15	207.804
1239.16	198.799
1240.17	181.793
1241.18	181.788
1242.2	208.783
1243.21	184.778
1244.22	186.773
1245.23	191.768
1246.24	200.762
1247.25	195.757
1248.26	192.752
1249.27	203.747
1250.28	193.742
1251.29	194.737
1252.3	197.732
1253.31	199.726
1254.32	212.721
1255.33	190.716
1256.34	201.711
1257.34	188.706
1258.35	190.701
1259.36	194.696
1260.37	204.69
1261.38	174.685
1262.39	227.68
1263.4	199.675
1264.4	203.67
1265.41	177.665
1266.42	177.66
1267.43	181.654
1268.44	179.649
1269.44	196.644
1270.45	192.639
1271.46	199.634
1272.47	193.629
1273.48	180.624
1274.48	204.618
1275.49	189.613
1276.5	165.608
1277.5	190.603
1278.51	207.598
1279.52	204.593
1280.52	194.588
1281.53	204.582
1282.54	183.577
1283.54	173.572
1284.55	195.567
1285.55	185.562
1286.56	189.557
1287.57	214.552
1288.57	182.546
1289.58	199.541
1290.58	184.536
1291.59	184.531
1292.59	183.526
1293.6	186.521
1294.6	171.516
1295.61	190.51
1296.61	195.505
1297.62	164.5
1298.62	199.495
1299.63	184.49
1300.63	195.485
1301.64	195.48
1302.64	192.474
1303.64	191.469
1304.65	200.464
1305.65	200.459
1306.66	194.454
1307.66	190.449
1308.66	202.444
1309.67	197.438
1310.67	202.433
1311.67	210.428
1312.67	192.423
1313.68	197.418
1314.68	174.413
1315.68	202.408
1316.69	188.402
1317.69	206.397
1318.69	197.392
1319.69	174.387
1320.7	209.382
1321.7	205.377
1322.7	204.371
1323.7	204.366
1324.7	192.361
1325.71	186.356
1326.71	181.351
1327.71	213.346
1328.71	212.341
1329.71	200.335
1330.71	186.33
1331.71	189.325
1332.71	216.32
1333.71	211.315
1334.72	185.31
1335.72	184.305
1336.72	188.299
1337.72	188.294
1338.72	184.289
1339.72	188.284
1340.72	207.279
1341.72	179.274
1342.72	231.269
1343.72	191.263
1344.72	185.258
1345.71	177.253
1346.71	206.248
1347.71	180.243
1348.71	205.238
1349.71	206.233
1350.71	211.227
1351.71	199.222
1352.71	216.217
1353.71	207.212
1354.71	191.207
1355.7	199.202
1356.7	188.197
1357.7	182.191
1358.7	208.186
1359.7	203.181
1360.69	203.176
1361.69	184.171
1362.69	198.166
1363.69	193.161
1364.68	195.155
1365.68	182.15
1366.68	202.145
1367.68	165.14
1368.67	199.135
1369.67	208.13
1370.67	197.125
1371.66	194.119
1372.66	203.114
1373.66	196.109
1374.65	190.104
1375.65	183.099
1376.64	185.094
1377.64	217.089
1378.64	203.083
1379.63	210.078
1380.63	199.073
1381.62	213.068
1382.62	219.063
1383.62	210.058
1384.61	192.053
1385.61	214.047
1386.6	203.042
1387.59	177.037
1388.59	227.032
1389.58	183.027
1390.58	187.022
1391.57	223.016
1392.57	213.011
1393.56	200.006
1394.56	208.001
1395.55	206.996
1396.54	188.991
1397.54	205.986
1398.53	207.98
1399.53	201.975
1400.52	200.97
1401.51	191.965
1402.5	195.96
1403.5	193.955
1404.49	197.95
1405.48	183.944
1406.48	187.939
1407.47	204.934
1408.46	211.929
1409.46	202.924
1410.45	216.919
1411.44	223.914
1412.43	208.908
1413.42	191.903
1414.41	220.898
1415.41	208.893
1416.4	225.888
1417.39	202.883
1418.38	211.878
1419.37	195.872
1420.36	194.867
1421.36	206.862
1422.35	212.857
1423.34	182.852
1424.33	202.847
1425.32	222.842
1426.31	187.836
1427.3	211.831
1428.29	222.826
1429.28	218.821
1430.27	210.816
1431.26	196.811
1432.25	206.806
1433.24	203.8
1434.23	229.795
1435.22	216.79
1436.21	226.785
1437.2	230.78
1438.19	208.775
1439.18	214.77
1440.17	211.764
1441.16	215.759
1442.15	213.754
1443.14	227.749
1444.13	219.744
1445.11	216.739
1446.1	219.734
1447.09	213.728
1448.08	231.723
1449.07	245.718
1450.05	221.713
1451.04	228.708
1452.03	204.703
1453.02	217.697
1454.01	245.692
1454.99	240.687
1455.98	224.682
1456.97	234.677
1457.96	232.672
1458.94	222.667
1459.93	216.661
1460.92	223.656
1461.91	239.651
1462.89	219.646
1463.88	233.641
1464.86	240.636
1465.85	211.631
1466.84	243.625
1467.82	212.62
1468.81	223.615
1469.8	227.61
1470.78	236.605
1471.77	241.6
1472.75	224.595
1473.74	221.589
1474.72	229.584
1475.71	212.579
1476.69	219.574
1477.68	219.569
1478.66	210.564
1479.65	225.559
1480.63	245.553
1481.62	242.548
1482.6	217.543
1483.59	211.538
1484.57	221.533
1485.56	207.528
1486.54	214.523
1487.52	237.517
1488.51	223.512
1489.49	223.507
1490.47	225.502
1491.46	223.497
1492.44	211.492
1493.43	228.487
1494.41	214.481
1495.39	218.476
1496.38	234.471
1497.36	217.466
1498.34	224.461
1499.33	220.456
1500.31	231.451
1501.29	225.445
1502.27	212.44
1503.25	237.435
1504.24	234.43
1505.22	230.425
1506.2	222.42
1507.18	223.415
1508.16	226.409
1509.15	210.404
1510.13	237.399
1511.11	220.394
1512.09	235.389
1513.07	227.384
1514.05	202.379
1515.04	238.373
1516.02	236.368
1517	220.363
1517.98	227.358
1518.96	218.353
1519.94	234.348
1520.92	224.342
1521.9	224.337
1522.88	233.332
1523.86	231.327
1524.84	225.322
1525.82	217.317
1526.8	205.312
1527.78	215.306
1528.76	234.301
1529.74	225.296
1530.72	240.291
1531.7	215.286
1532.67	215.281
1533.65	208.276
1534.63	234.27
1535.61	226.265
1536.59	227.26
1537.57	235.255
1538.55	240.25
1539.53	231.245
1540.5	217.24
1541.48	223.234
1542.46	231.229
1543.44	214.224
1544.42	222.219
1545.4	229.214
1546.37	226.209
1547.35	220.204
1548.33	245.198
1549.3	211.193
1550.28	220.188
1551.26	239.183
1552.24	235.178
1553.21	206.173
1554.19	204.168
1555.17	225.162
1556.14	242.157
1557.12	221.152
1558.1	220.147
1559.07	223.142
1560.05	230.137
1561.02	223.132
1562	213.126
1562.98	250.121
1563.95	246.116
1564.93	237.111
1565.9	245.106
1566.88	249.101
1567.85	232.096
1568.83	228.09
1569.81	251.085
1570.78	237.08
1571.75	232.075
1572.73	216.07
1573.7	244.065
1574.68	232.06
1575.65	250.054
1576.63	247.049
1577.6	247.044
1578.58	261.039
1579.55	286.034
1580.52	264.029
1581.5	243.024
1582.47	268.018
1583.45	260.013
1584.42	270.008
1585.39	262.003
1586.37	282.998
1587.34	282.993
1588.31	247.988
1589.29	250.982
1590.26	279.977
1591.23	259.972
1592.2	289.967
1593.18	262.962
1594.15	281.957
1595.12	295.951
1596.09	289.946
1597.07	270.941
1598.04	275.936
1599.01	280.931
1599.98	293.926
1600.95	265.921
1601.93	273.915
1602.9	261.91
1603.87	277.905
1604.84	274.9
1605.81	253.895
1606.78	298.89
1607.75	285.885
1608.72	278.879
1609.7	273.874
1610.67	273.869
1611.64	254.864
1612.61	272.859
1613.58	253.854
1614.55	265.849
1615.52	271.843
1616.49	252.838
1617.46	252.833
1618.43	273.828
1619.4	258.823
1620.37	271.818
1621.34	238.813
1622.31	269.807
1623.28	288.802
1624.25	269.797
1625.21	276.792
1626.18	251.787
1627.15	282.782
1628.12	281.777
1629.09	260.771
1630.06	273.766
1631.03	279.761
1632	276.756
1632.96	285.751
1633.93	289.746
1634.9	293.741
1635.87	285.735
1636.84	269.73
1637.8	260.725
1638.77	288.72
1639.74	256.715
1640.71	267.71
1641.67	261.705
1642.64	282.699
1643.61	269.694
1644.58	260.689
1645.54	258.684
1646.51	275.679
1647.48	261.674
1648.44	262.669
1649.41	276.663
1650.38	276.658
1651.34	258.653
1652.31	273.648
1653.27	247.643
1654.24	246.638
1655.21	257.633
1656.17	275.627
1657.14	264.622
1658.1	299.617
1659.07	273.612
1660.03	278.607
1661	287.602
1661.97	259.596
1662.93	271.591
1663.9	275.586
1664.86	264.581
1665.83	269.576
1666.79	250.571
1667.76	281.566
1668.72	264.56
1669.68	264.555
1670.65	266.55
1671.61	272.545
1672.58	284.54
1673.54	271.535
1674.5	229.53
1675.47	279.524
1676.43	283.519
1677.39	243.514
1678.36	243.509
1679.32	244.504
1680.29	276.499
1681.25	218.494
1682.21	230.488
1683.17	247.483
1684.14	250.478
1685.1	250.473
1686.06	230.468
1687.02	270.463
1687.99	245.458
1688.95	261.452
1689.91	225.447
1690.87	245.442
1691.84	239.437
1692.8	214.432
1693.76	234.427
1694.72	241.422
1695.68	245.416
1696.64	240.411
1697.61	209.406
1698.57	238.401
1699.53	227.396
1700.49	234.391
1701.45	251.386
1702.41	235.38
1703.37	241.375
1704.33	231.37
1705.29	221.365
1706.25	217.36
1707.21	224.355
1708.18	221.35
1709.14	205.344
1710.1	236.339
1711.05	237.334
1712.01	225.329
1712.97	224.324
1713.93	231.319
1714.89	233.314
1715.85	218.308
1716.81	227.303
1717.77	236.298
1718.73	252.293
1719.69	193.288
1720.65	219.283
1721.61	226.278
1722.57	229.272
1723.52	223.267
1724.48	219.262
1725.44	217.257
1726.4	222.252
1727.36	224.247
1728.32	233.242
1729.27	216.236
1730.23	226.231
1731.19	250.226
1732.15	233.221
1733.1	212.216
1734.06	231.211
1735.02	218.205
1735.98	227.2
1736.94	216.195
1737.89	215.19
1738.85	221.185
1739.81	226.18
1740.76	234.175
1741.72	211.169
1742.67	245.164
1743.63	212.159
1744.59	223.154
1745.55	213.149
1746.5	224.144
1747.46	228.139
1748.41	211.133
1749.37	220.128
1750.32	224.123
1751.28	227.118
1752.24	213.113
1753.19	226.108
1754.15	228.103
1755.1	212.097
1756.06	234.092
1757.01	220.087
1757.97	189.082
1758.92	219.077
1759.88	225.072
1760.83	214.067
1761.78	241.061
1762.74	222.056
1763.69	207.051
1764.65	235.046
1765.6	211.041
1766.56	240.036
1767.51	223.031
1768.46	236.025
1769.42	230.02
1770.37	210.015
1771.33	222.01
1772.28	222.005
1773.23	229
1774.19	233.995
1775.14	207.989
1776.09	228.984
1777.04	215.979
1778	222.974
1778.95	214.969
1779.9	219.964
1780.86	232.959
1781.81	203.953
1782.76	216.948
1783.71	223.943
1784.66	238.938
1785.61	225.933
1786.57	222.928
1787.52	233.923
1788.47	226.917
1789.42	209.912
1790.37	224.907
1791.32	222.902
1792.28	211.897
1793.23	226.892
1794.18	222.887
1795.13	212.881
1796.08	222.876
1797.03	216.871
1797.98	227.866
1798.93	236.861
1799.88	221.856
1800.83	213.85
1801.78	226.845
1802.73	199.84
1803.68	239.835
1804.63	204.83
1805.58	218.825
1806.53	229.82
1807.48	213.814
1808.43	219.809
1809.38	213.804
1810.33	219.799
1811.28	215.794
1812.23	222.789
1813.18	194.784
1814.13	218.778
1815.08	215.773
1816.02	229.768
1816.97	221.763
1817.92	242.758
1818.87	222.753
1819.82	225.748
1820.77	207.742
1821.71	228.737
1822.66	216.732
1823.61	236.727
1824.56	240.722
1825.51	218.717
1826.45	196.712
1827.4	184.706
1828.35	230.701
1829.3	232.696
1830.24	214.691
1831.19	221.686
1832.14	228.681
1833.08	218.676
1834.03	231.67
1834.98	219.665
1835.92	225.66
1836.87	228.655
1837.82	234.65
1838.76	222.645
1839.71	226.64
1840.65	220.634
1841.6	202.629
1842.55	219.624
1843.49	198.619
1844.44	208.614
1845.38	219.609
1846.33	240.604
1847.28	225.598
1848.22	221.593
1849.17	234.588
1850.11	224.583
1851.06	223.578
1852	228.573
1852.95	200.568
1853.89	214.562
1854.83	240.557
1855.78	208.552
1856.72	200.547
1857.67	229.542
1858.61	213.537
1859.56	228.531
1860.5	227.526
1861.44	221.521
1862.39	226.516
1863.33	245.511
1864.27	236.506
1865.22	226.501
1866.16	216.495
1867.11	226.49
1868.05	200.485
1868.99	200.48
1869.93	231.475
1870.88	222.47
1871.82	222.465
1872.76	220.459
1873.71	232.454
1874.65	189.449
1875.59	250.444
1876.53	192.439
1877.48	218.434
1878.42	204.429
1879.36	207.423
1880.3	226.418
1881.24	218.413
1882.18	236.408
1883.13	234.403
1884.07	211.398
1885.01	233.393
1885.95	206.387
1886.89	215.382
1887.83	212.377
1888.77	208.372
1889.71	204.367
1890.65	222.362
1891.6	208.357
1892.54	219.351
1893.48	221.346
1894.42	210.341
1895.36	232.336
1896.3	238.331
1897.24	218.326
1898.18	226.321
1899.12	222.315
1900.06	231.31
1901	217.305
1901.94	214.3
1902.88	234.295
1903.82	218.29
1904.75	238.285
1905.69	209.279
1906.63	236.274
1907.57	226.269
1908.51	216.264
1909.45	223.259
1910.39	230.254
1911.33	230.249
1912.26	208.243
1913.2	217.238
1914.14	221.233
1915.08	220.228
1916.02	219.223
1916.96	222.218
1917.89	197.213
1918.83	234.207
1919.77	226.202
1920.71	225.197
1921.64	212.192
1922.58	233.187
1923.52	224.182
1924.46	223.176
1925.39	226.171
1926.33	215.166
1927.27	222.161
1928.2	236.156
1929.14	234.151
1930.08	223.146
1931.01	242.14
1931.95	234.135
1932.89	228.13
1933.82	218.125
1934.76	228.12
1935.7	232.115
1936.63	198.11
1937.57	257.104
1938.5	222.099
1939.44	228.094
1940.37	227.089
1941.31	226.084
1942.24	239.079
1943.18	224.074
1944.11	231.068
1945.05	214.063
1945.98	246.058
1946.92	229.053
1947.85	232.048
1948.79	231.043
1949.72	229.038
1950.66	223.032
1951.59	226.027
1952.53	222.022
1953.46	233.017
1954.39	224.012
1955.33	256.007
1956.26	241.002
1957.19	230.996
1958.13	245.991
1959.06	225.986
1960	244.981
1960.93	246.976
1961.86	237.971
1962.8	244.966
1963.73	210.96
1964.66	216.955
1965.59	243.95
1966.53	237.945
1967.46	252.94
1968.39	219.935
1969.33	228.93
1970.26	250.924
1971.19	254.919
1972.12	244.914
1973.05	221.909
1973.99	230.904
1974.92	236.899
1975.85	212.894
1976.78	232.888
1977.71	236.883
1978.64	250.878
1979.57	222.873
1980.51	221.868
1981.44	238.863
1982.37	226.858
1983.3	222.852
1984.23	233.847
1985.16	249.842
1986.09	237.837
1987.02	243.832
1987.95	228.827
1988.88	215.822
1989.81	233.816
1990.74	249.811
1991.67	247.806
1992.6	235.801
1993.53	255.672
1994.46	237.705
1995.39	225.122
1996.32	265.958
1997.25	246.706
1998.18	235.276
1999.11	246.193
2000.04	215.733
2000.97	230.281
2001.9	219.025
2002.83	231.756
2003.75	232.17
2004.68	241.71
2005.61	243.903
2006.54	243.49
2007.47	239.062
2008.4	230.997
2009.33	243.686
2010.25	237.922
2011.18	230.226
2012.11	238.65
2013.04	231.54
2013.97	228.383
2014.89	236.133
2015.82	251.505
2016.75	229.307
2017.67	236.019
2018.6	254.563
2019.53	249.876
2020.46	233.643
2021.38	255.158
2022.31	257.024
2023.24	244.129
2024.16	226.908
2025.09	231.545
2026.02	247.368
2026.94	226.073
2027.87	241.374
2028.79	249.861
2029.72	245.686
2030.65	251.342
2031.57	237.626
2032.5	229.117
2033.42	233.615
2034.35	236.726
2035.28	238.154
2036.2	250.756
2037.13	266.508
2038.05	246.466
2038.98	237.288
2039.9	245.071
2040.83	254.513
2041.75	242.215
2042.67	248.229
2043.6	245.183
2044.52	244.633
2045.45	251.237
2046.37	229.287
2047.3	234.728
2048.22	261.1
2049.15	240.575
2050.07	228.641
2050.99	257.09
2051.92	241.175
2052.84	248.583
2053.76	242.285
2054.69	257.303
2055.61	241.591
2056.53	229.822
2057.46	241.349
2058.38	240.687
2059.3	223.884
2060.23	244.314
2061.15	242.326
2062.07	229.883
2062.99	257.788
2063.92	252.279
2064.84	238.031
2065.76	249.054
2066.68	236.381
2067.61	242.375
2068.53	235.914
2069.45	248.076
2070.37	250.921
2071.29	246.615
2072.21	245.558
2073.13	240.348
2074.06	257.361
2074.98	243.685
2075.9	243.715
2076.82	250.799
2077.74	250.253
2078.66	235.679
2079.58	253.297
2080.5	233.205
2081.42	234.066
2082.34	249.338
2083.26	245.428
2084.18	228.75
2085.11	231.343
2086.03	232.525
2086.95	235.532
2087.87	218.583
2088.79	253.005
2088.79	253.221
2089.72	249.217
2090.64	246.214
2091.56	248.21
2092.49	260.207
2093.41	243.203
2094.33	242.2
2095.26	245.196
2096.18	213.193
2097.1	225.19
2098.03	270.186
2098.95	235.183
2099.87	248.179
2100.8	258.176
2101.72	226.172
2102.64	269.169
2103.56	256.165
2104.49	238.162
2105.41	224.158
2106.33	248.155
2107.25	252.151
2108.18	233.148
2109.1	257.144
2110.02	208.141
2110.94	260.137
2111.86	237.134
2112.78	244.13
2113.71	227.127
2114.63	260.123
2115.55	225.12
2116.47	256.117
2117.39	261.113
2118.31	221.11
2119.23	245.106
2120.15	235.103
2121.07	203.099
2122	233.096
2122.92	240.092
2123.84	226.089
2124.76	260.085
2125.68	247.082
2126.6	250.078
2127.52	242.075
2128.44	240.071
2129.36	247.068
2130.28	261.064
2131.2	236.061
2132.12	243.057
2133.04	233.054
2133.95	246.05
2134.87	233.047
2135.79	225.043
2136.71	251.04
2137.63	260.037
2138.55	259.033
2139.47	252.03
2140.39	240.026
2141.31	257.023
2142.22	252.019
2143.14	229.016
2144.06	240.012
2144.98	236.009
2145.9	263.005
2146.82	258.002
2147.73	235.998
2148.65	255.995
2149.57	247.991
2150.49	254.988
2151.4	237.984
2152.32	228.981
2153.24	239.977
2154.16	214.974
2155.07	243.97
2155.99	234.967
2156.91	224.964
2157.82	247.96
2158.74	243.957
2159.66	260.953
2160.57	232.95
2161.49	249.946
2162.41	242.943
2163.32	250.939
2164.24	237.936
2165.16	247.932
2166.07	270.929
2166.99	237.925
2167.9	256.922
2168.82	237.918
2169.73	241.915
2170.65	245.911
2171.57	250.908
2172.48	262.904
2173.4	257.901
2174.31	252.897
2175.23	252.894
2176.14	252.89
2177.06	232.887
2177.97	243.884
2178.88	253.88
2179.8	247.877
2180.71	255.873
2181.63	232.87
2182.54	247.866
2183.46	242.863
2184.37	242.859
2185.29	250.856
2186.2	233.852
2187.11	240.849
2188.03	254.845
2188.94	261.842
2189.85	260.838
2190.77	238.835
2191.68	251.831
2192.59	252.828
2193.51	236.824
2194.42	234.821
2195.33	250.817
2196.25	243.814
2197.16	262.811
2198.07	247.807
2198.99	256.804
2199.9	240.8
2200.81	250.797
2201.72	230.793
2202.63	235.79
2203.55	255.786
2204.46	253.783
2205.37	258.779
2206.28	228.776
2207.19	266.772
2208.1	243.769
2209.02	246.765
2209.93	248.762
2210.84	254.758
2211.75	246.755
2212.66	267.751
2213.57	255.748
2214.48	247.744
2215.39	247.741
2216.31	243.737
2217.22	252.734
2218.13	260.731
2219.04	255.727
2219.95	248.724
2220.86	237.72
2221.77	241.717
2222.68	250.713
2223.59	267.71
2224.5	266.706
2225.41	257.703
2226.32	244.699
2227.23	252.696
2228.14	254.692
2229.05	250.689
2229.96	251.685
2230.87	262.682
2231.77	271.678
2232.68	261.675
2233.59	261.671
2234.5	269.668
2235.41	287.664
2236.32	243.661
2237.23	253.658
2238.14	233.654
2239.05	264.651
2239.95	252.647
2240.86	244.644
2241.77	256.64
2242.68	259.637
2243.59	249.633
2244.49	273.63
2245.4	243.626
2246.31	243.623
2247.22	260.619
2248.13	258.616
2249.03	229.612
2249.94	224.609
2250.85	245.605
2251.75	249.602
2252.66	242.598
2253.57	252.595
2254.47	254.591
2255.38	255.588
2256.29	241.584
2257.19	289.581
2258.1	256.578
2259.01	248.574
2259.91	264.571
2260.82	260.567
2261.73	235.564
2262.63	234.56
2263.54	233.557
2264.44	252.553
2265.35	236.55
2266.26	237.546
2267.16	240.543
2268.07	264.539
2268.97	261.536
2269.88	247.532
2270.78	251.529
2271.69	234.525
2272.59	244.522
2273.5	235.518
2274.4	247.515
2275.31	270.511
2276.21	238.508
2277.11	241.505
2278.02	248.501
2278.92	249.498
2279.83	261.494
2280.73	246.491
2281.64	235.487
2282.54	257.484
2283.44	248.48
2284.35	249.477
2285.25	259.473
2286.15	263.47
2287.06	248.466
2287.96	268.463
2288.86	255.459
2289.77	230.456
2290.67	245.452
2291.57	251.449
2292.48	263.445
2293.38	247.442
2294.28	261.438
2295.18	251.435
2296.09	262.431
2296.99	246.428
2297.89	269.425
2298.79	267.421
2299.7	261.418
2300.6	261.414
2301.5	232.411
2302.4	242.407
2303.3	246.404
2304.21	274.4
2305.11	235.397
2306.01	239.393
2306.91	218.39
2307.81	255.386
2308.71	250.383
2309.61	248.379
2310.52	259.376
2311.42	255.372
2312.32	244.369
2313.22	248.365
2314.12	267.362
2315.02	253.358
2315.92	262.355
2316.82	265.352
2317.72	252.348
2318.62	262.345
2319.52	270.341
2320.42	257.338
2321.32	247.334
2322.22	261.331
2323.12	222.327
2324.02	278.324
2324.92	258.32
2325.82	253.317
2326.72	248.313
2327.62	253.31
2328.52	249.306
2329.42	263.303
2330.31	242.299
2331.21	246.296
2332.11	266.292
2333.01	248.289
2333.91	244.285
2334.81	248.282
2335.71	242.278
2336.61	247.275
2337.5	243.272
2338.4	257.268
2339.3	246.265
2340.2	259.261
2341.1	251.258
2341.99	245.254
2342.89	253.251
2343.79	240.247
2344.69	261.244
2345.58	259.24
2346.48	262.237
2347.38	265.233
2348.28	243.23
2349.17	273.226
2350.07	245.223
2350.97	261.219
2351.86	257.216
2352.76	263.212
2353.66	256.209
2354.55	252.205
2355.45	218.202
2356.35	228.199
2357.24	252.195
2358.14	273.192
2359.03	261.188
2359.93	262.185
2360.83	249.181
2361.72	248.178
2362.62	271.174
2363.51	250.171
2364.41	270.167
2365.3	250.164
2366.2	224.16
2367.09	239.157
2367.99	264.153
2368.88	267.15
2369.78	235.146
2370.67	241.143
2371.57	272.139
2372.46	271.136
2373.36	285.132
2374.25	246.129
2375.15	274.125
2376.04	258.122
2376.94	268.119
2377.83	251.115
2378.72	217.112
2379.62	247.108
2380.51	257.105
2381.41	272.101
2382.3	250.098
2383.19	260.094
2384.09	243.091
2384.98	237.087
2385.87	248.084
2386.77	231.08
2387.66	254.077
2388.55	257.073
2389.44	237.07
2390.34	257.066
2391.23	233.063
2392.12	265.059
2393.02	254.056
2393.91	257.052
2394.8	239.049
2395.69	239.046
2396.58	260.042
2397.48	258.039
2398.37	254.035
2399.26	237.032
2400.15	266.028
2401.04	243.025
2401.94	245.021
2402.83	258.018
2403.72	264.014
2404.61	261.011
2405.5	249.007
2406.39	260.004
2407.28	263
2408.17	230.997
2409.06	259.993
2409.96	261.99
2410.85	242.986
2411.74	256.983
2412.63	246.979
2413.52	248.976
2414.41	258.973
2415.3	250.969
2416.19	259.966
2417.08	249.962
2417.97	254.959
2418.86	257.955
2419.75	260.952
2420.64	243.948
2421.53	257.945
2422.42	243.941
2423.31	275.938
2424.2	245.934
2425.09	244.931
2425.98	268.927
2426.86	248.924
2427.75	229.92
2428.64	239.917
2429.53	267.913
2430.42	243.91
2431.31	248.906
2432.2	238.903
2433.09	239.899
2433.97	263.896
2434.86	248.893
2435.75	251.889
2436.64	252.886
2437.53	253.882
2438.41	227.879
2439.3	249.875
2440.19	259.872
2441.08	246.868
2441.97	234.865
2442.85	234.861
2443.74	229.858
2444.63	252.854
2445.51	243.851
2446.4	265.847
2447.29	243.844
2448.18	230.84
2449.06	251.837
2449.95	235.833
2450.83	222.83
2451.72	247.826
2452.61	239.823
2453.49	224.819
2454.38	261.816
2455.27	242.813
2456.15	247.809
2457.04	233.806
2457.92	234.802
2458.81	252.799
2459.7	246.795
2460.58	268.792
2461.47	273.788
2462.35	243.785
2463.24	230.781
2464.12	231.778
2465.01	261.774
2465.89	252.771
2466.78	238.767
2467.66	257.764
2468.55	247.76
2469.43	251.757
2470.32	252.753
2471.2	231.75
2472.09	243.746
2472.97	246.743
2473.85	254.74
2474.74	264.736
2475.62	256.733
2476.51	262.729
2477.39	225.726
2478.27	253.722
2479.16	244.719
2480.04	246.715
2480.93	274.712
2481.81	267.708
2482.69	253.705
2483.57	256.701
2484.46	262.698
2485.34	248.694
2486.23	241.691
2487.11	253.687
2487.99	238.684
2488.87	247.68
2489.75	254.677
2490.64	259.673
2491.52	235.67
2492.4	263.667
2493.28	246.663
2494.17	254.66
2495.05	241.656
2495.93	256.653
2496.81	239.649
2497.7	263.646
2498.58	241.642
2499.46	257.639
2500.34	246.635
2501.22	250.632
2502.1	251.628
2502.98	242.625
2503.87	237.621
2504.75	271.618
2505.63	242.614
2506.51	247.611
2507.39	214.607
2508.27	229.604
2509.15	261.6
2510.03	242.597
2510.91	245.593
2511.79	249.59
2512.67	249.587
2513.55	252.583
2514.43	229.58
2515.31	270.576
2516.19	252.573
2517.07	263.569
2517.95	251.566
2518.83	261.562
2519.71	276.559
2520.59	241.555
2521.47	231.552
2522.35	208.548
2523.23	238.545
2524.11	240.541
2524.99	262.538
2525.87	235.534
2526.74	237.531
2527.62	257.527
2528.5	244.524
2529.38	232.52
2530.26	250.517
2531.14	253.513
2532.01	233.51
2532.89	254.507
2533.77	266.503
2534.65	233.5
2535.53	234.496
2536.4	246.493
2537.28	270.489
2538.16	231.486
2539.04	259.482
2539.92	247.479
2540.79	248.475
2541.67	274.472
2542.55	256.468
2543.43	224.465
2544.3	251.461
2545.18	256.458
2546.06	268.454
2546.93	265.451
2547.81	266.447
2548.69	266.444
2549.56	260.44
2550.44	253.437
2551.31	258.434
2552.19	272.43
2553.07	255.427
2553.94	227.423
2554.82	265.42
2555.69	214.416
2556.57	269.413
2557.45	251.409
2558.32	262.406
2559.2	229.402
2560.07	262.399
2560.95	262.395
2561.82	273.392
2562.7	242.388
2563.57	246.385
2564.45	236.381
2565.32	249.378
2566.2	252.374
2567.07	245.371
2567.95	252.367
2568.82	258.364
2569.7	246.36
2570.57	258.357
2571.45	263.354
2572.32	259.35
2573.19	241.347
2574.07	260.343
2574.94	244.34
2575.82	248.336
2576.69	241.333
2577.56	238.329
2578.44	273.326
2579.31	253.322
2580.18	220.319
2581.06	246.315
2581.93	257.312
2582.8	247.308
2583.68	241.305
2584.55	256.301
2585.42	254.298
2586.29	243.294
2587.17	248.291
2588.04	272.287
2588.91	258.284
2589.79	239.281
2590.66	240.277
2591.53	264.274
2592.4	227.27
2593.27	249.267
2594.15	216.263
2595.02	246.26
2595.89	256.256
2596.76	238.253
2597.63	238.249
2598.5	242.246
2599.38	262.242
2600.25	227.239
2601.12	237.235
2601.99	258.232
2602.86	234.228
2603.73	232.225
2604.6	247.221
2605.47	254.218
2606.34	271.214
2607.21	251.211
2608.08	225.207
2608.96	242.204
2609.83	229.201
2610.7	246.197
2611.57	244.194
2612.44	226.19
2613.31	260.187
2614.18	236.183
2615.05	259.18
2615.92	244.176
2616.79	242.173
2617.66	236.169
2618.52	239.166
2619.39	248.162
2620.26	259.159
2621.13	250.155
2622	233.152
2622.87	251.148
2623.74	246.145
2624.61	241.141
2625.48	252.138
2626.35	252.134
2627.21	248.131
2628.08	216.128
2628.95	246.124
2629.82	236.121
2630.69	251.117
2631.56	234.114
2632.42	253.11
2633.29	247.107
2634.16	230.103
2635.03	265.1
2635.9	261.096
2636.76	232.093
2637.63	235.089
2638.5	259.086
2639.36	246.082
2640.23	228.079
2641.1	263.075
2641.97	252.072
2642.83	234.068
2643.7	255.065
2644.57	239.061
2645.43	229.058
2646.3	267.055
2647.17	241.051
2648.03	256.048
2648.9	254.044
2649.77	242.041
2650.63	253.037
2651.5	236.034
2652.36	267.03
2653.23	234.027
2654.1	275.023
2654.96	266.02
2655.83	234.016
2656.69	243.013
2657.56	229.009
2658.42	233.006
2659.29	251.002
2660.16	222.999
2661.02	253.995
2661.89	241.992
2662.75	250.988
2663.62	254.985
2664.48	236.981
2665.34	254.978
2666.21	266.975
2667.07	256.971
2667.94	250.968
2668.8	227.964
2669.67	229.961
2670.53	228.957
2671.4	244.954
2672.26	238.95
2673.12	270.947
2673.99	260.943
2674.85	247.94
2675.71	249.936
2676.58	267.933
2677.44	243.929
2678.31	269.926
2679.17	247.922
2680.03	268.919
2680.9	239.915
2681.76	236.912
2682.62	240.908
2683.48	249.905
2684.35	245.901
2685.21	245.898
2686.07	244.895
2686.93	249.891
2687.8	247.888
2688.66	243.884
2689.52	236.881
2690.38	252.877
2691.24	264.874
2692.11	242.87
2692.97	257.867
2693.83	256.863
2694.69	248.86
2695.55	227.856
2696.42	263.853
2697.28	240.849
2698.14	247.846
2699	256.842
2699.86	255.839
2700.72	239.835
2701.58	250.832
2702.44	228.828
2703.31	250.825
2704.17	217.822
2705.03	258.818
2705.89	247.815
2706.75	239.811
2707.61	243.808
2708.47	252.804
2709.33	254.801
2710.19	257.797
2711.05	257.794
2711.91	238.79
2712.77	239.787
2713.63	258.783
2714.49	237.78
2715.35	264.776
2716.21	242.773
2717.07	245.769
2717.93	230.766
2718.79	246.762
2719.65	266.759
2720.5	247.755
2721.36	240.752
2722.22	237.748
2723.08	230.745
2723.94	254.742
2724.8	259.738
2725.66	237.735
2726.52	252.731
2727.37	247.728
2728.23	259.724
2729.09	241.721
2729.95	253.717
2730.81	254.714
2731.67	247.71
2732.52	202.707
2733.38	237.703
2734.24	234.7
2735.1	257.696
2735.96	229.693
2736.81	259.689
2737.67	241.686
2738.53	271.682
2739.38	251.679
2740.24	233.675
2741.1	253.672
2741.96	240.669
2742.81	265.665
2743.67	231.662
2744.52	225.658
2745.38	241.655
2746.24	237.651
2747.09	242.648
2747.95	249.644
2748.81	238.641
2749.66	228.637
2750.52	231.634
2751.38	248.63
2752.23	242.627
2753.09	224.623
2753.94	261.62
2754.8	242.616
2755.65	240.613
2756.51	260.609
2757.36	255.606
2758.22	215.602
2759.08	249.599
2759.93	247.595
2760.79	240.592
2761.64	253.589
2762.5	235.585
2763.35	246.582
2764.2	222.578
2765.06	225.575
2765.91	232.571
2766.77	215.568
2767.62	245.564
2768.48	260.561
2769.33	236.557
2770.19	233.554
2771.04	244.55
2771.89	242.547
2772.75	239.543
2773.6	236.54
2774.46	237.536
2775.31	247.533
2776.16	235.529
2777.01	229.526
2777.87	241.522
2778.72	229.519
2779.58	249.516
2780.43	269.512
2781.28	241.509
2782.13	236.505
2782.99	241.502
2783.84	253.498
2784.69	254.495
2785.54	232.491
2786.4	226.488
2787.25	256.484
2788.1	226.481
2788.95	258.477
2789.81	238.474
2790.66	244.47
2791.51	226.467
2792.36	241.463
2793.21	246.46
2794.07	225.456
2794.92	241.453
2795.77	253.449
2796.62	258.446
2797.47	223.442
2798.32	234.439
2799.17	263.436
2800.02	270.432
2800.88	236.429
2801.73	245.425
2802.58	240.422
2803.43	240.418
2804.28	242.415
2805.13	250.411
2805.98	239.408
2806.83	254.404
2807.68	254.401
2808.53	254.397
2809.38	242.394
2810.23	244.39
2811.08	258.387
2811.93	245.383
2812.78	252.38
2813.63	244.376
2814.48	253.373
2815.33	243.369
2816.18	233.366
2817.03	245.363
2817.88	237.359
2818.73	240.356
2819.58	229.352
2820.42	226.349
2821.27	236.345
2822.12	250.342
2822.97	221.338
2823.82	249.335
2824.67	257.331
2825.52	239.328
2826.37	230.324
2827.21	233.321
2828.06	252.317
2828.91	239.314
2829.76	252.31
2830.61	230.307
2831.45	223.303
2832.3	271.3
2833.15	224.296
2834	258.293
2834.85	234.289
2835.69	231.286
2836.54	220.283
2837.39	232.279
2838.23	247.276
2839.08	227.272
2839.93	263.269
2840.78	239.265
2841.62	254.262
2842.47	259.258
2843.32	243.255
2844.16	238.251
2845.01	256.248
2845.86	261.244
2846.7	254.241
2847.55	259.237
2848.39	242.234
2849.24	259.23
2850.09	257.227
2850.93	228.223
2851.78	268.22
2852.63	263.216
2853.47	228.213
2854.32	251.21
2855.16	231.206
2856.01	242.203
2856.85	253.199
2857.7	273.196
2858.54	244.192
2859.39	253.189
2860.23	242.185
2861.08	226.182
2861.92	254.178
2862.77	235.175
2863.61	250.171
2864.46	241.168
2865.3	242.164
2866.15	276.161
2866.99	245.157
2867.83	237.154
2868.68	245.15
2869.52	248.147
2870.37	266.143
2871.21	237.14
2872.06	240.136
2872.9	247.133
2873.74	240.13
2874.59	253.126
2875.43	257.123
2876.27	246.119
2877.12	251.116
2877.96	261.112
2878.8	231.109
2879.65	256.105
2880.49	260.102
2881.33	278.098
2882.17	244.095
2883.02	233.091
2883.86	265.088
2884.7	247.084
2885.54	255.081
2886.39	265.077
2887.23	253.074
2888.07	244.07
2888.91	257.067
2889.76	273.063
2890.6	278.06
2891.44	264.057
2892.28	248.053
2893.12	268.05
2893.96	261.046
2894.81	250.043
2895.65	260.039
2896.49	247.036
2897.33	253.032
2898.17	275.029
2899.01	241.025
2899.85	249.022
2900.7	267.018
2901.54	258.015
2902.38	248.011
2903.22	280.008
2904.06	278.004
2904.9	276.001
2905.74	251.997
2906.58	260.994
2907.42	253.99
2908.26	276.987
2909.1	236.983
2909.94	263.98
2910.78	261.977
2911.62	242.973
2912.46	239.97
2913.3	279.966
2914.14	270.963
2914.98	257.959
2915.82	264.956
2916.66	261.952
2917.5	270.949
2918.34	272.945
2919.18	257.942
2920.01	274.938
2920.85	261.935
2921.69	250.931
2922.53	256.928
2923.37	262.924
2924.21	268.921
2925.05	264.917
2925.88	262.914
2926.72	275.91
2927.56	271.907
2928.4	274.904
2929.24	273.9
2930.08	274.897
2930.91	262.893
2931.75	274.89
2932.59	264.886
2933.43	257.883
2934.26	272.879
2935.1	276.876
2935.94	290.872
2936.78	268.869
2937.61	258.865
2938.45	276.862
2939.29	264.858
2940.13	291.855
2940.96	272.851
2941.8	244.848
2942.64	275.844
2943.47	279.841
2944.31	285.837
2945.15	281.834
2945.98	266.831
2946.82	273.827
2947.65	274.824
2948.49	266.82
2949.33	271.817
2950.16	274.813
2951	265.81
2951.83	291.806
2952.67	272.803
2953.51	273.799
2954.34	273.796
2955.18	287.792
2956.01	290.789
2956.85	286.785
2957.68	276.782
2958.52	284.778
2959.35	308.775
2960.19	293.771
2961.02	294.768
2961.86	310.764
2962.69	291.761
2963.53	286.757
2964.36	286.754
2965.2	300.751
2966.03	284.747
2966.86	314.744
2967.7	287.74
2968.53	279.737
2969.37	299.733
2970.2	288.73
2971.04	294.726
2971.87	270.723
2972.7	291.719
2973.54	294.716
2974.37	304.712
2975.2	292.709
2976.04	296.705
2976.87	289.702
2977.71	295.698
2978.54	275.695
2979.37	296.691
2980.2	275.688
2981.04	314.684
2981.87	305.681
2982.7	318.677
2983.54	298.674
2984.37	301.671
2985.2	300.667
2986.03	298.664
2986.86	317.66
2987.7	316.657
2988.53	314.653
2989.36	331.65
2990.19	307.646
2991.02	318.643
2991.86	290.639
2992.69	326.636
2993.52	296.632
2994.35	321.629
2995.18	313.625
2996.01	304.622
2996.85	311.618
2997.68	325.615
2998.51	304.611
2999.34	328.608
3000.17	344.604
3001	320.601
3001.83	309.598
3002.66	327.594
3003.49	311.591
3004.32	336.587
3005.16	341.584
3005.98	339.58
3006.81	328.577
3007.65	321.573
3008.48	326.57
3009.31	335.566
3010.14	318.563
3010.97	348.559
3011.8	294.556
3012.63	340.552
3013.46	308.549
3014.29	322.545
3015.11	345.542
3015.94	332.538
3016.77	354.535
3017.6	331.531
3018.43	332.528
3019.26	327.525
3020.09	364.521
3020.92	331.518
3021.75	323.514
3022.58	350.511
3023.41	345.507
3024.23	334.504
3025.06	361.5
3025.89	351.497
3026.72	341.493
3027.55	366.49
3028.38	313.486
3029.2	365.483
3030.03	353.479
3030.86	351.476
3031.69	365.472
3032.51	363.469
3033.34	372.465
3034.17	360.462
3035	356.458
3035.83	373.455
3036.65	362.451
3037.48	368.448
3038.31	374.445
3039.13	370.441
3039.96	359.438
3040.79	390.434
3041.62	387.431
3042.44	404.427
3043.27	349.424
3044.09	396.42
3044.92	390.417
3045.75	412.413
3046.58	384.41
3047.4	388.406
3048.23	399.403
3049.05	376.399
3049.88	392.396
3050.71	405.392
3051.53	390.389
3052.36	379.385
3053.18	391.382
3054.01	384.378
3054.83	409.375
3055.66	406.371
3056.48	421.368
3057.31	402.365
3058.14	401.361
3058.96	413.358
3059.78	415.354
3060.61	418.351
3061.44	418.347
3062.26	437.344
3063.09	418.34
3063.91	443.337
3064.73	424.333
3065.56	410.33
3066.38	443.326
3067.21	419.323
3068.03	448.319
3068.86	434.316
3069.68	437.312
3070.5	446.309
3071.33	425.305
3072.15	446.302
3072.98	452.298
3073.8	433.295
3074.62	424.292
3075.45	457.288
3076.27	481.285
3077.09	476.281
3077.92	467.278
3078.74	486.274
3079.56	475.271
3080.39	498.267
3081.21	460.264
3082.03	508.26
3082.85	462.257
3083.68	457.253
3084.5	513.25
3085.32	465.246
3086.14	523.243
3086.97	493.239
3087.79	484.236
3088.61	473.232
3089.43	524.229
3090.25	507.225
3091.08	513.222
3091.9	503.219
3092.72	522.215
3093.54	521.212
3094.36	530.208
3095.18	523.205
3096.01	510.201
3096.83	551.198
3097.65	521.194
3098.47	511.191
3099.29	549.187
3100.11	537.184
3100.93	562.18
3101.75	525.177
3102.58	526.173
3103.4	532.17
3104.22	546.166
3105.04	548.163
3105.86	583.159
3106.68	563.156
3107.5	574.152
3108.32	561.149
3109.14	568.145
3109.96	568.142
3110.78	557.139
3111.6	599.135
3112.42	576.132
3113.24	592.128
3114.06	583.125
3114.88	627.121
3115.7	606.118
3116.52	606.114
3117.34	539.111
3118.15	621.107
3118.97	629.104
3119.79	618.1
3120.61	603.097
3121.43	635.093
3122.25	628.09
3123.07	648.086
3123.89	635.083
3124.71	676.079
3125.53	629.076
3126.34	668.072
3127.16	668.069
3127.98	651.065
3128.8	680.062
3129.62	667.059
3130.43	656.055
3131.25	639.052
3132.07	609.048
3132.89	677.045
3133.71	666.041
3134.52	631.038
3135.34	695.034
3136.16	681.031
3136.98	675.027
3137.79	714.024
3138.61	720.02
3139.43	698.017
3140.24	708.013
3141.06	727.01
3141.88	738.006
3142.69	738.003
3143.51	716.999
3144.33	702.996
3145.15	738.992
3145.96	737.989
3146.78	743.986
3147.59	768.982
3148.41	751.979
3149.23	766.975
3150.04	749.972
3150.86	766.968
3151.67	740.965
3152.49	781.961
3153.31	777.958
3154.12	806.954
3154.94	778.951
3155.75	776.947
3156.57	790.944
3157.38	827.94
3158.2	801.937
3159.01	808.933
3159.83	775.93
3160.64	799.926
3161.46	763.923
3162.27	798.919
3163.09	824.916
3163.9	789.912
3164.72	837.909
3165.53	798.906
3166.35	849.902
3167.16	851.899
3167.98	876.895
3168.79	834.892
3169.61	847.888
3170.42	884.885
3171.23	851.881
3172.05	892.878
3172.86	859.874
3173.67	879.871
3174.49	868.867
3175.3	914.864
3176.12	874.86
3176.93	876.857
3177.74	932.853
3178.55	909.85
3179.37	893.846
3180.18	924.843
3180.99	894.839
3181.81	913.836
3182.62	914.833
3183.43	889.829
3184.25	875.826
3185.06	958.822
3185.87	895.819
3186.68	942.815
3187.5	931.812
3188.31	913.808
3189.12	931.805
3189.93	997.801
3190.74	965.798
3191.56	929.794
3192.37	917.791
3193.18	974.787
3193.99	975.784
3194.8	968.78
3195.61	924.777
3196.43	993.773
3197.24	972.77
3198.05	993.766
3198.86	976.763
3199.67	1023.76
3200.48	956.756
3201.29	1018.75
3202.11	983.749
3202.92	1009.75
3203.73	1017.74
3204.54	1041.74
3205.35	1027.74
3206.16	1041.73
3206.97	1042.73
3207.78	1037.72
3208.59	1043.72
3209.4	1024.72
3210.21	1036.71
3211.02	1038.71
3211.83	1043.71
3212.64	1044.7
3213.45	1038.7
3214.26	1024.7
3215.07	1067.69
3215.88	1034.69
3216.69	1062.69
3217.5	1012.68
3218.31	1059.68
3219.12	1047.68
3219.93	1091.67
3220.73	1051.67
3221.54	1079.67
3222.35	1075.66
3223.16	1065.66
3223.97	1067.66
3224.78	1089.65
3225.59	1044.65
3226.4	1095.64
3227.2	1038.64
3228.01	1127.64
3228.82	1055.63
3229.63	1104.63
3230.44	1085.63
3231.25	1052.62
3232.05	1087.62
3232.86	1077.62
3233.67	1125.61
3234.48	1060.61
3235.28	1089.61
3236.09	1086.6
3236.9	1089.6
3237.71	1086.6
3238.51	1104.59
3239.32	1125.59
3240.13	1122.59
3240.94	1075.58
3241.74	1112.58
3242.55	1108.58
3243.36	1100.57
3244.16	1150.57
3244.97	1101.56
3245.78	1113.56
3246.58	1112.56
3247.39	1095.55
3248.2	1067.55
3249	1105.55
3249.81	1125.54
3250.61	1136.54
3251.42	1124.54
3252.23	1147.53
3253.03	1124.53
3253.84	1138.53
3254.64	1095.52
3255.45	1067.52
3256.26	1120.52
3257.06	1058.51
3257.87	1112.51
3258.67	1159.51
3259.48	1114.5
3260.28	1082.5
3261.09	1206.5
3261.89	1086.49
3262.7	1130.49
3263.5	1122.48
3264.31	1119.48
3265.11	1162.48
3265.92	1130.47
3266.72	1146.47
3267.53	1146.47
3268.33	1149.46
3269.14	1113.46
3269.94	1091.46
3270.74	1126.45
3271.55	1137.45
3272.35	1142.45
3273.16	1191.44
3273.96	1128.44
3274.76	1137.44
3275.57	1081.43
3276.37	1114.43
3277.17	1135.43
3277.98	1076.42
3278.78	1100.42
3279.58	1124.42
3280.39	1175.41
3281.19	1135.41
3281.99	1150.4
3282.8	1125.4
3283.6	1141.4
3284.4	1136.39
3285.2	1164.39
3286.01	1142.39
3286.81	1067.38
3287.61	1193.38
3288.41	1142.38
3289.22	1121.37
3290.02	1185.37
3290.82	1168.37
3291.62	1147.36
3292.43	1179.36
3293.23	1104.36
3294.03	1147.35
3294.83	1138.35
3295.63	1153.35
3296.43	1139.34
3297.24	1149.34
3298.04	1124.34
3298.84	1098.33
3299.64	1199.33
3300.44	1141.32
3301.24	1171.32
3302.04	1187.32
3302.84	1166.31
3303.65	1212.31
3304.45	1126.31
3305.25	1196.3
3306.05	1150.3
3306.85	1174.3
3307.65	1182.29
3308.45	1216.29
3309.25	1161.29
3310.05	1242.28
3310.85	1229.28
3311.65	1200.28
3312.45	1172.27
3313.25	1209.27
3314.05	1174.27
3314.85	1187.26
3315.65	1179.26
3316.45	1176.26
3317.25	1174.25
3318.05	1165.25
3318.85	1180.24
3319.65	1194.24
3320.45	1223.24
3321.25	1210.23
3322.04	1236.23
3322.84	1162.23
3323.64	1210.22
3324.44	1185.22
3325.24	1234.22
3326.04	1216.21
3326.84	1218.21
3327.64	1211.21
3328.43	1226.2
3329.23	1167.2
3330.03	1152.2
3330.83	1148.19
3331.63	1229.19
3332.43	1164.19
3333.22	1221.18
3334.02	1194.18
3334.82	1191.18
3335.62	1207.17
3336.42	1271.17
3337.21	1160.16
3338.01	1240.16
3338.81	1202.16
3339.61	1213.15
3340.4	1240.15
3341.2	1214.15
3342	1292.14
3342.79	1262.14
3343.59	1201.14
3344.39	1240.13
3345.19	1280.13
3345.98	1238.13
3346.78	1230.12
3347.58	1233.12
3348.37	1264.12
3349.17	1272.11
3349.96	1201.11
3350.76	1264.11
3351.56	1236.1
3352.35	1267.1
3353.15	1223.1
3353.95	1257.09
3354.74	1333.09
3355.54	1317.08
3356.33	1216.08
3357.13	1264.08
3357.92	1280.07
3358.72	1291.07
3359.51	1319.07
3360.31	1314.06
3361.1	1223.06
3361.9	1272.06
3362.7	1246.05
3363.49	1330.05
3364.29	1311.05
3365.08	1282.04
3365.88	1267.04
3366.67	1325.04
3367.46	1348.03
3368.26	1310.03
3369.05	1281.03
3369.85	1306.02
3370.64	1261.02
3371.44	1283.02
3372.23	1279.01
3373.02	1269.01
3373.82	1290
3374.61	1307
3375.41	1327
3376.2	1348.99
3376.99	1297.99
3377.79	1318.99
3378.58	1348.98
3379.38	1341.98
3380.17	1341.98
3380.96	1372.97
3381.75	1348.97
3382.55	1323.97
3383.34	1350.96
3384.13	1348.96
3384.93	1366.96
3385.72	1362.95
3386.51	1285.95
3387.3	1312.95
3388.1	1344.94
3388.89	1299.94
3389.68	1345.94
3390.48	1358.93
3391.27	1376.93
3392.06	1298.92
3392.85	1348.92
3393.64	1316.92
3394.44	1317.91
3395.23	1345.91
3396.02	1319.91
3396.81	1370.9
3397.6	1265.9
3398.4	1298.9
3399.19	1344.89
3399.98	1253.89
3400.77	1292.89
3401.56	1295.88
3402.35	1292.88
3403.14	1318.88
3403.93	1344.87
3404.73	1398.87
3405.52	1330.87
3406.31	1299.86
3407.1	1277.86
3407.89	1299.86
3408.68	1317.85
3409.47	1266.85
3410.26	1326.84
3411.05	1311.84
3411.84	1309.84
3412.63	1301.83
3413.42	1319.83
3414.21	1278.83
3415	1314.82
3415.79	1271.82
3416.58	1318.82
3417.37	1301.81
3418.16	1325.81
3418.95	1297.81
3419.74	1255.8
3420.53	1322.8
3421.32	1280.8
3422.11	1264.79
3422.9	1258.79
3423.69	1305.79
3424.48	1349.78
3425.27	1329.78
3426.05	1289.78
3426.84	1294.77
3427.63	1233.77
3428.42	1332.77
3429.21	1221.76
3430	1253.76
3430.79	1294.75
3431.57	1287.75
3432.36	1240.75
3433.15	1247.74
3433.94	1249.74
3434.73	1276.74
3435.51	1263.73
3436.3	1254.73
3437.09	1237.73
3437.88	1231.72
3438.67	1205.72
3439.45	1269.72
3440.24	1245.71
3441.03	1247.71
3441.82	1203.71
3442.6	1231.7
3443.39	1245.7
3444.18	1247.7
3444.96	1230.69
3445.75	1268.69
3446.54	1208.69
3447.32	1230.68
3448.11	1221.68
3448.9	1212.67
3449.68	1291.67
3450.47	1263.67
3451.26	1267.66
3452.04	1227.66
3452.83	1229.66
3453.62	1211.65
3454.4	1235.65
3455.19	1234.65
3455.98	1221.64
3456.76	1230.64
3457.55	1199.64
3458.33	1204.63
3459.12	1222.63
3459.9	1240.63
3460.69	1240.62
3461.47	1181.62
3462.26	1223.62
3463.05	1247.61
3463.83	1205.61
3464.62	1160.61
3465.4	1221.6
3466.19	1184.6
3466.97	1175.59
3467.76	1219.59
3468.54	1149.59
3469.33	1167.58
3470.11	1241.58
3470.89	1194.58
3471.68	1187.57
3472.46	1151.57
3473.25	1147.57
3474.03	1228.56
3474.82	1143.56
3475.6	1213.56
3476.38	1162.55
3477.17	1132.55
3477.95	1147.55
3478.74	1148.54
3479.52	1132.54
3480.3	1175.54
3481.09	1141.53
3481.87	1135.53
3482.65	1154.53
3483.44	1176.52
3484.22	1073.52
3485	1110.51
3485.79	1078.51
3486.57	1134.51
3487.35	1131.5
3488.14	1115.5
3488.92	1108.5
3489.7	1080.49
3490.48	1092.49
3491.27	1111.49
3492.05	1113.48
3492.83	1076.48
3493.61	1037.48
3494.4	1088.47
3495.18	1088.47
3495.96	1069.47
3496.74	1046.46
3497.52	1087.46
3498.3	1091.46
3499.09	1054.45
3499.87	1061.45
3500.65	1049.45
3501.43	1031.44
3502.21	1080.44
3503	1036.43
3503.78	1040.43
3504.56	1093.43
3505.34	1023.42
3506.12	1014.42
3506.9	1050.42
3507.68	977.414
3508.46	1034.41
3509.24	1007.41
3510.02	982.403
3510.81	1037.4
3511.59	971.396
3512.37	1004.39
3513.15	994.389
3513.93	1002.39
3514.71	991.383
3515.49	1013.38
3516.27	955.376
3517.05	995.372
3517.83	948.369
3518.61	967.365
3519.39	996.362
3520.17	910.358
3520.95	970.355
3521.73	966.351
3522.51	916.348
3523.29	924.344
3524.06	951.341
3524.84	922.337
3525.62	914.334
3526.4	936.33
3527.18	918.327
3527.96	887.323
3528.74	892.32
3529.52	905.316
3530.3	880.313
3531.08	886.309
3531.85	875.306
3532.63	845.303
3533.41	888.299
3534.19	904.296
3534.97	894.292
3535.75	873.289
3536.52	889.285
3537.3	850.282
3538.08	847.278
3538.86	820.275
3539.64	867.271
3540.41	872.268
3541.19	815.264
3541.97	828.261
3542.75	853.257
3543.52	838.254
3544.3	846.25
3545.08	824.247
3545.86	851.243
3546.63	840.24
3547.41	838.236
3548.19	817.233
3548.96	820.229
3549.74	797.226
3550.52	797.223
3551.29	855.219
3552.07	804.216
3552.85	776.212
3553.62	814.209
3554.4	793.205
3555.18	751.202
3555.95	779.198
3556.73	792.195
3557.51	760.191
3558.28	770.188
3559.06	758.184
3559.83	757.181
3560.61	787.177
3561.38	731.174
3562.16	751.17
3562.94	725.167
3563.71	730.163
3564.49	735.16
3565.26	757.156
3566.04	744.153
3566.81	726.15
3567.59	706.146
3568.36	717.143
3569.14	705.139
3569.91	717.136
3570.69	721.132
3571.46	714.129
3572.24	698.125
3573.01	676.122
3573.79	732.118
3574.56	715.115
3575.33	667.111
3576.11	722.108
3576.88	662.104
3577.66	697.101
3578.43	677.097
3579.21	659.094
3579.98	680.09
3580.75	696.087
3581.53	662.083
3582.3	670.08
3583.07	660.076
3583.85	645.073
3584.62	645.07
3585.4	654.066
3586.17	660.063
3586.94	641.059
3587.72	645.056
3588.49	659.052
3589.26	632.049
3590.03	660.045
3590.81	635.042
3591.58	620.038
3592.35	588.035
3593.13	600.031
3593.9	630.028
3594.67	585.024
3595.44	628.021
3596.21	583.017
3596.99	624.014
3597.76	617.01
3598.53	598.007
3599.3	614.003
