#Acq. time (s)=	10
#Accumulations=	2
#Range (cm-¹)=	71...3780
#Windows=	2
#Auto scanning=	Off
#Autofocus=	Off
#Macrospot=	Off
#AutoExposure=	Off
#Spike filter=	Multiple accum.
#Delay time (s)=	0
#Binning=	1
#Readout mode=	Signal
#DeNoise=	Off
#ICS correction=	Off
#Dark correction=	Off
#Inst. Process=	Off
#Detector temperature (°C)=	-75.13
#Instrument=	LabRAM HR Evol
#Detector=	Synapse
#Objective=	X50_VIS_LWD
#Grating=	600 (500nm)
#ND Filter=	100%
#Laser (nm)=	488 
#Hole=	49.98
#Range=	Visible
#StageXY=	Marzhauser
#StageZ=	Marzhauser
#X (µm)=	0
#Y (µm)=	0
#Z (µm)=	0
#Full time(s)=	46
#Project=	2021-4-13_Andrew_Fertilizer
#Sample=	
#Site=	
#Title=	_2021_04_13_15_26_08_Lebanon_488 nm_600 (500nm)_X50_VIS_LWD_100%_
#Remark=	
#Date=	13.04.2021 15:26
#Acquired=	13.04.2021 15:26:20
#ICS:Correction=	13.04.2021 15:26:58
73.8841	4772.11
75.0266	4511.72
76.1676	4232.42
77.3099	4136.72
78.452	4040.64
79.594	4078.45
80.7358	3870.46
81.8775	3910.06
83.0179	3947.45
84.1593	3913.22
85.3007	3877.84
86.4419	3852.2
87.583	3830.12
88.7226	3905.98
89.8635	3754.96
91.0042	3899.83
92.1447	3775.55
93.2852	3776.89
94.4242	3758.22
95.5644	3743.45
96.7045	3807.51
97.8444	3721.41
98.983	3772.55
100.123	3674.83
101.262	3744.82
102.402	3671.57
103.541	3718.97
104.679	3776.01
105.818	3723.27
106.957	3729.84
108.096	3712.35
109.233	3684.84
110.372	3741.96
111.51	3732.35
112.648	3810.93
113.785	3693.62
114.923	3755.21
116.061	3699.13
117.198	3714.12
118.335	3778.34
119.473	3696.9
120.61	3669.3
121.746	3787.56
122.883	3721.24
124.02	3738.49
125.156	3710.02
126.293	3806.15
127.429	3748.66
128.564	3785.78
129.701	3727.19
130.837	3637.59
131.973	3735.88
133.108	3733.6
134.244	3745.23
135.38	3728.19
136.514	3747.69
137.649	3780.29
138.785	3748.05
139.919	3697.92
141.054	3797.39
142.189	3698.25
143.322	3846.93
144.457	3749.52
145.591	3755.4
146.725	3797.01
147.859	3787
148.992	3743.56
150.126	3794.15
151.26	3748.12
152.393	3742.1
153.527	3880.05
154.659	3785.02
155.793	3775.09
156.926	3852
158.058	3813.9
159.191	3768.97
160.323	3843.79
161.455	3795.51
162.588	3876.89
163.719	3783.61
164.852	3750.68
165.983	3889.76
167.115	3792.71
168.247	3799.75
169.378	3859.31
170.51	3799.13
171.64	3882.69
172.772	3772.88
173.902	3801.68
175.033	3922.6
176.165	3919.39
177.294	3848.55
178.425	3837.94
179.555	3807.7
180.686	3804.06
181.815	3879.14
182.945	3830.59
184.074	3908.59
185.205	3914.61
186.333	3847.65
187.463	3855.29
188.592	3851.68
189.722	3884.76
190.85	3945.45
191.979	3944.53
193.107	3827.62
194.237	3879.04
195.364	3890.28
196.493	3932.16
197.621	3847.65
198.749	3922.31
199.877	3824.87
201.005	3853.56
202.132	3899.21
203.26	3898.83
204.387	3926.05
205.515	3945.79
206.642	3831.52
207.769	3910.35
208.896	3944.98
210.023	3898.29
211.149	3875.86
212.276	3951.49
213.402	3897.27
214.528	3914.16
215.655	3880.82
216.78	3966.65
217.907	3927.58
219.032	3993.82
220.158	3916.69
221.283	3973.56
222.408	3972.14
223.534	3887.59
224.658	3869.92
225.784	3904.03
226.908	3976.02
228.032	3954.46
229.158	3927.76
230.282	3974.48
231.407	3994.94
232.53	3951.69
233.654	3897.25
234.779	3886.98
235.902	3936.06
237.026	3994
238.149	3906.89
239.272	3988.71
240.396	3914.52
241.519	3968.87
242.642	3970.33
243.765	3959.18
244.888	3981.37
246.01	3956.21
247.133	4024.02
248.255	3929.05
249.377	3937.92
250.5	4023.22
251.621	3973.82
252.743	3938.67
253.865	4028.15
254.987	3977.5
256.108	3939.17
257.23	4073.82
258.351	3888.08
259.471	3895.32
260.593	4066.02
261.714	4017.35
262.834	4065.09
263.955	4007.39
265.075	4042.34
266.195	3894.02
267.315	3969.73
268.436	3921.66
269.556	4023.2
270.675	4037.19
271.796	4065.66
272.915	3956.19
274.034	3952.75
275.153	4012.61
276.273	3871.21
277.392	4048.09
278.51	4102.39
279.629	3976.03
280.748	4004.65
281.867	4086.27
282.985	4052.76
284.103	4116.85
285.222	4064.64
286.339	3943.66
287.457	4132.41
288.574	4020.81
289.692	4058.06
290.81	4100.17
291.927	4074.27
293.044	4056.03
294.161	4088.21
295.279	4059.19
296.396	4101.8
297.512	4112.67
298.629	4144.03
299.745	4085.33
300.862	4075.33
301.978	4082.29
303.094	4138.86
304.21	4112.07
305.325	4052.74
306.441	4024.84
307.557	4163.2
308.673	4159.39
309.788	4102.92
310.903	4112.43
312.018	4160.46
313.133	4176.4
314.247	4225.08
315.363	4205.3
316.477	4136.51
317.592	4278.1
318.706	4168.52
319.82	4173.35
320.934	4196.07
322.047	4178.16
323.162	4290.27
324.276	4217.28
325.389	4186.63
326.502	4155.96
327.616	4179.67
328.729	4223.02
329.842	4328.96
330.954	4234.23
332.067	4224.71
333.18	4198.52
334.293	4308.01
335.405	4228.8
336.518	4242.16
337.63	4273.68
338.742	4365.83
339.853	4245.56
340.965	4293.3
342.077	4287.16
343.188	4317.22
344.299	4343.26
345.411	4339.55
346.522	4234.54
347.633	4249.5
348.743	4302.1
349.854	4308.9
350.965	4300.16
352.075	4417.45
353.185	4326.12
354.296	4371.75
355.407	4298.64
356.517	4280.21
357.627	4264.92
358.737	4354.73
359.846	4362.59
360.956	4342.25
362.065	4334.86
363.174	4416.05
364.283	4358.97
365.392	4392.64
366.501	4375.19
367.61	4352.38
368.717	4442.74
369.826	4358.67
370.934	4439.02
372.042	4284.71
373.151	4487.81
374.259	4383.42
375.366	4446.98
376.474	4351.07
377.582	4438.31
378.689	4458.57
379.797	4457.29
380.904	4435.97
382.011	4382.74
383.118	4442.52
384.225	4475.58
385.332	4516.76
386.439	4592.12
387.545	4543.5
388.652	4467.07
389.757	4405.68
390.863	4503.69
391.969	4538.36
393.075	4557.29
394.181	4488.3
395.286	4506.17
396.392	4483.95
397.497	4542.83
398.603	4439.1
399.708	4493.06
400.812	4548.19
401.917	4429.88
403.022	4597.38
404.126	4546.01
405.231	4615.22
406.335	4536.96
407.44	4603.42
408.544	4565.48
409.647	4623.14
410.751	4538.82
411.855	4621.49
412.958	4651.18
414.062	4587.19
415.166	4514.65
416.268	4666.76
417.371	4632.79
418.474	4524.68
419.577	4545.98
420.68	4511.9
421.783	4587.8
422.884	4565.71
423.987	4607.89
425.089	4586.01
426.192	4484.4
427.294	4615.07
428.395	4470.36
429.496	4597.49
430.598	4642.85
431.7	4575.55
432.802	4657.7
433.902	4606.87
435.003	4620.28
436.104	4669.29
437.205	4639.24
438.305	4568.71
439.406	4627.25
440.507	4644.84
441.607	4695.24
442.707	4620.64
443.807	4652.65
444.907	4542.39
446.007	4651.19
447.106	4677.88
448.206	4651.44
449.306	4643.04
450.405	4637.53
451.504	4684.57
452.603	4700.36
453.702	4627.53
454.8	4611.03
455.899	4606.92
456.998	4600.33
458.097	4710.55
459.194	4723.79
460.293	4756.98
461.391	4797.87
462.488	4622.01
463.587	4668.18
464.685	4780.48
465.781	4795.1
466.879	4717.72
467.977	4746.21
469.073	4709.17
470.171	4752.83
471.268	4789.58
472.364	4743.5
473.461	4839.44
474.558	4709.01
475.654	4786.19
476.751	4856.4
477.847	4801.32
478.943	4831.83
480.039	4882.99
481.134	4876.88
482.23	4742.72
483.326	4702.94
484.421	4787.66
485.517	4801.17
486.612	4798.78
487.707	4780.31
488.802	4814.25
489.896	4884.46
490.991	4863.95
492.086	4920.18
493.18	4860.7
494.275	4897.47
495.369	4931.28
496.463	4817.13
497.556	4819.08
498.651	4848.23
499.745	4852.83
500.838	4932.89
501.932	4753.43
503.024	4821.87
504.118	4984.04
505.211	4871.58
506.304	4893.11
507.398	4937.49
508.49	4835.5
509.583	4893.58
510.675	5032.12
511.767	4812.31
512.859	5020.74
513.952	4926.37
515.043	4874.01
516.135	4842.11
517.227	4936.61
518.319	4894.14
519.41	4913.55
520.502	4936.57
521.592	4994.53
522.684	4953.69
523.774	4982.78
524.866	4990.12
525.956	5024.07
527.047	5022.7
528.137	4948.91
529.228	4992.65
530.318	5051.14
531.409	4986.84
532.498	4935.57
533.589	4950.24
534.678	4974.78
535.767	5019.77
536.857	5041.22
537.946	5021.92
539.036	5007.05
540.124	5056.99
541.214	5022.72
542.302	5009.29
543.392	5054.33
544.48	4995.41
545.568	4966.55
546.657	5085.11
547.745	5068.75
548.834	5044.33
549.921	5041.86
551.009	5113.94
552.097	4969.95
553.184	5155.47
554.273	5114.27
555.36	5107.62
556.446	5033.57
557.534	5094.44
558.621	5233.65
559.709	5134.58
560.795	5164.28
561.881	5206.01
562.968	5179.75
564.054	4992.98
565.14	5260.12
566.227	5153
567.313	5141.91
568.398	5147.05
569.485	5185.55
570.57	5120.78
571.655	5151.08
572.742	5046.94
573.827	5253.11
574.911	5085.75
575.997	5085.29
577.082	5118.6
578.166	5111.93
579.252	5274.78
580.336	5144.63
581.42	5176.24
582.505	5182.63
583.589	5323.25
584.673	5130.58
585.758	5248.45
586.841	5228.16
587.925	5198.06
589.008	5249.96
590.092	5151.96
591.175	5235.1
592.258	5200.82
593.341	5216.84
594.425	5344.58
595.508	5303.27
596.59	5216.58
597.674	5279.76
598.756	5275.54
599.838	5304.02
600.92	5298.29
602.002	5245.16
603.085	5259.97
604.166	5264.7
605.248	5255.99
606.329	5237.88
607.412	5238.19
608.493	5227.85
609.574	5248.66
610.655	5270.69
611.736	5233.33
612.817	5428.71
613.898	5255.79
614.978	5338.83
616.059	5349.79
617.139	5381.3
618.22	5318.27
619.3	5331.58
620.38	5392.93
621.46	5349.88
622.539	5284.4
623.62	5334.5
624.7	5419.95
625.779	5221.66
626.858	5441.7
627.937	5355.71
629.016	5454.79
630.095	5421.97
631.175	5432.62
632.253	5409.52
633.332	5369.21
634.41	5357.61
635.488	5305.34
636.566	5432.18
637.644	5377.31
638.722	5390.81
639.801	5459.1
640.879	5382.09
641.956	5521.7
643.034	5365.31
644.111	5359.55
645.188	5460.47
646.265	5400.86
647.342	5333.53
648.419	5309.57
649.496	5437.87
650.573	5522.73
651.65	5469.73
652.726	5442.83
653.802	5495.55
654.879	5369.72
655.955	5579.73
657.03	5433.23
658.106	5481.53
659.182	5419.4
660.257	5545.67
661.333	5524.53
662.408	5634.52
663.483	5469.55
664.558	5547.56
665.633	5597.26
666.708	5572.85
667.783	5490.94
668.857	5531
669.932	5495.93
671.006	5601.85
672.081	5586.52
673.155	5513.63
674.229	5646.91
675.303	5523.6
676.376	5608.66
677.45	5614.23
678.524	5540.29
679.597	5512.02
680.67	5608.54
681.744	5632.47
682.817	5560.87
683.89	5473.12
684.962	5529.58
686.035	5621.26
687.108	5570.35
688.18	5683.05
689.253	5660.16
690.325	5706.27
691.397	5629.61
692.469	5645.93
693.541	5648.4
694.613	5581.76
695.683	5725.02
696.755	5723.36
697.826	5664.12
698.898	5668.87
699.969	5641.62
701.04	5453.68
702.111	5624.67
703.182	5689.34
704.253	5587.72
705.323	5704.02
706.394	5634.79
707.463	5825.22
708.533	5631.82
709.604	5765.94
710.674	5722.25
711.744	5610.39
712.813	5785.01
713.883	5707.85
714.952	5679
716.021	5708.96
717.09	5721.04
718.16	5767.65
719.229	5690.72
720.298	5725.99
721.367	5659.76
722.434	5720.12
723.503	5758.87
724.572	5768.12
725.64	5777.33
726.708	5712.24
727.777	5768.18
728.844	5730.54
729.911	5640.29
730.979	5673.18
732.047	5777.09
733.115	5801.92
734.181	5720.07
735.249	5861.58
736.316	5705.01
737.383	5833.7
738.449	5811.74
739.516	5752.57
740.583	5781.44
741.649	5875.14
742.716	5811.42
743.781	5775.28
744.848	5812.6
745.914	5764.55
746.98	5895.75
748.045	5802.01
749.111	5771.48
750.177	5794.39
751.242	5865.51
752.307	5892.84
753.372	5845.39
754.438	5840.85
755.502	5783.88
756.567	5881.88
757.632	5788.26
758.696	5860.47
759.76	5859.11
760.825	5828.1
761.889	5810.39
762.952	5893.08
764.017	5875.9
765.081	5913.2
766.144	5883.36
767.208	5835.49
768.272	5914.72
769.334	5908.84
770.398	5753.9
771.461	5781.36
772.523	6031.91
773.587	5885.98
774.65	6078.5
775.712	6145.33
776.775	5895.4
777.838	5981.27
778.899	5887.23
779.962	6093.41
781.024	5810.8
782.085	5933.73
783.148	6019.65
784.208	5943.67
785.271	5923.43
786.332	5890.24
787.393	6048.14
788.455	6082.63
789.516	5882.14
790.576	5934.9
791.638	5952.35
792.698	5851.94
793.759	5926.95
794.819	5960.86
795.88	5962.26
796.94	6036.4
798	5979.55
799.06	6009.46
800.12	6004.17
801.18	6012.16
802.239	5945.38
803.299	6110.2
804.359	6000.86
805.418	6041.05
806.477	6078.43
807.536	6001.71
808.595	5961.74
809.653	5976.33
810.713	6077.16
811.771	6125.77
812.83	6083.34
813.887	6076.22
814.946	6037.78
816.004	6052.16
817.062	6064.31
818.12	6138.92
819.178	5989.47
820.235	6075.82
821.293	5963.69
822.35	6074.45
823.408	6122.75
824.465	6129.57
825.522	5892.59
826.579	6119.48
827.636	6058.36
828.692	6069.61
829.75	6093.41
830.805	6097.23
831.862	6022.77
832.918	6094.53
833.974	6067.61
835.03	6105.05
836.086	6088.73
837.142	6133.45
838.197	6024.49
839.253	6135.56
840.308	6017.25
841.363	6168
842.419	6145.5
843.474	6150.42
844.529	6106.8
845.584	6185.67
846.639	6128.68
847.693	6211.65
848.747	6166.7
849.802	6210.54
850.856	6198.06
851.91	6198.95
852.964	6104.95
854.018	6078.92
855.072	6256
856.126	6280.24
857.179	6144.83
858.233	6194.03
859.286	6070.83
860.338	6178.26
861.392	6169.91
862.445	6234.98
863.497	6117.3
864.551	6108.36
865.603	6183.39
866.655	6211.74
867.708	6158.23
868.76	6141.81
869.812	6159.42
870.865	6204.01
871.916	6210.32
872.967	6166.98
874.02	6168.43
875.071	6413.27
876.122	6215.87
877.174	6233.19
878.225	6196.38
879.276	6211.9
880.326	6214.23
881.378	6205.06
882.429	6268.37
883.479	6191.73
884.529	6334.74
885.58	6327.84
886.63	6292.44
887.68	6309.98
888.731	6161.25
889.781	6281.18
890.83	6247.26
891.879	6303.76
892.929	6292.15
893.979	6261.43
895.028	6327.59
896.077	6264.73
897.126	6244.66
898.176	6348.29
899.224	6266.47
900.273	6306.01
901.321	6365.29
902.369	6341.66
903.419	6366.83
904.467	6330.17
905.515	6317.85
906.562	6375.18
907.61	6375.76
908.659	6467.85
909.706	6459.83
910.754	6414.6
911.801	6365.45
912.848	6324.95
913.895	6328.58
914.943	6331.02
915.99	6298.28
917.037	6385.91
918.083	6369.2
919.13	6469.55
920.176	6325.48
921.222	6461.4
922.27	6471.14
923.316	6426.32
924.362	6349.56
925.407	6344.25
926.453	6348.98
927.499	6387
928.544	6389.08
929.589	6374.55
930.635	6353.38
931.681	6355.15
932.726	6331.12
933.771	6295.48
934.816	6353.95
935.86	6384.12
936.905	6359.61
937.949	6403.85
938.994	6501.45
940.038	6362.39
941.082	6473.55
942.126	6464.49
943.17	6332.99
944.214	6427.36
945.257	6416.74
946.301	6343.34
947.346	6443.73
948.389	6504.23
949.432	6567.89
950.475	6528.46
951.518	6420.43
952.561	6445.85
953.604	6545.01
954.647	6468.68
955.689	6480.15
956.732	6508.19
957.774	6462.88
958.816	6491.6
959.858	6530.9
960.9	6454.43
961.942	6513.95
962.983	6557.57
964.026	6455.52
965.066	6393.2
966.109	6481.57
967.149	6465.24
968.191	6496.7
969.231	6510.21
970.273	6548.88
971.313	6611.81
972.355	6490.08
973.394	6474.23
974.436	6531.81
975.475	6560.81
976.517	6583.6
977.556	6522.13
978.595	6668.04
979.636	6507.95
980.675	6637.39
981.716	6659.13
982.754	6667.71
983.795	6553.89
984.833	6608.52
985.874	6550.89
986.912	6562.05
987.952	6653.97
988.99	6693.28
990.028	6756.86
991.068	6625.13
992.105	6685.6
993.145	6729.02
994.182	6680.02
995.222	6755.47
996.259	6803.83
997.296	6731.46
998.335	6729.88
999.372	6778.13
1000.41	6659.95
1001.45	6744.08
1002.49	6726.48
1003.52	6659.59
1004.56	6715.07
1005.6	6796.28
1006.63	6796.52
1007.67	6725.58
1008.71	6766.8
1009.74	6706.52
1010.78	6757.35
1011.82	6832.86
1012.85	6732.18
1013.89	6689.88
1014.92	6747.13
1015.96	6764.87
1017	6685.63
1018.03	6684.19
1019.07	6734.65
1020.1	6756.64
1021.14	6764.36
1022.17	6739.27
1023.21	6782.05
1024.24	6730.14
1025.28	6729.73
1026.31	6757.43
1027.35	6627.74
1028.38	6669.45
1029.42	6796.98
1030.45	6705.34
1031.48	6669.37
1032.52	6703.05
1033.55	6824.8
1034.59	6792.09
1035.62	6759.26
1036.65	6751.64
1037.69	6800.92
1038.72	6726.66
1039.75	6687.87
1040.79	6735.98
1041.82	6906.6
1042.85	6699.27
1043.89	6823.71
1044.92	6735.78
1045.95	6896.47
1046.98	6834.04
1048.02	6826.7
1049.05	6865.86
1050.08	6761.91
1051.11	6767.25
1052.14	6845.38
1053.18	6772.85
1054.21	6887.25
1055.24	6956.88
1056.27	6813.72
1057.3	6739.81
1058.33	6844.23
1059.36	6812.83
1060.4	6895.97
1061.43	6821.04
1062.46	6876.42
1063.49	6807.02
1064.52	6855.26
1065.55	6841.86
1066.58	6950.21
1067.61	6849.03
1068.64	6715.35
1069.67	6845.31
1070.7	6765.2
1071.73	6767.1
1072.76	6829.42
1073.79	6739.83
1074.82	6797.62
1075.85	6844.91
1076.87	6824.25
1077.9	6849.72
1078.93	6958.19
1079.96	6850.55
1080.99	6847.17
1082.02	6969.41
1083.05	6820.07
1084.08	6907.39
1085.11	6809
1086.13	6826.79
1087.16	6807
1088.19	6820.94
1089.22	6900.79
1090.24	6894.9
1091.27	6805.79
1092.3	6854.2
1093.33	6868.74
1094.35	6828.02
1095.38	6791.8
1096.41	6847.56
1097.44	6809.83
1098.46	6889.91
1099.49	6790.68
1100.51	6807.84
1101.54	6844.22
1102.57	6895.6
1103.59	6819.86
1104.62	6688
1105.64	6832.73
1106.67	6908.4
1107.7	6940.72
1108.72	6878.56
1109.75	6912.67
1110.77	6857.12
1111.8	6872.99
1112.82	6814.16
1113.85	6820.75
1114.87	6807.96
1115.9	6788.15
1116.92	6956.79
1117.95	6947.18
1118.97	7009.62
1120	6917.51
1121.02	6812.79
1122.05	6783.1
1123.07	6820.83
1124.09	6854.36
1125.12	7036.76
1126.14	7024.63
1127.17	6944.57
1128.19	7087.77
1129.21	6989.8
1130.23	6951.87
1131.26	6906.91
1132.28	7009.83
1133.3	6929.73
1134.33	6937.95
1135.35	6876.45
1136.37	6948
1137.39	6849.66
1138.42	6878.64
1139.44	6932.44
1140.46	6913.9
1141.48	6941.5
1142.51	6903.91
1143.53	6997.94
1144.55	7008.85
1145.57	7071.74
1146.59	6977.6
1147.61	6865.44
1148.63	6999
1149.66	7051.81
1150.68	6846.73
1151.7	7178.72
1152.72	6994.59
1153.74	6947.55
1154.76	7018.22
1155.78	6988.87
1156.8	7131.57
1157.82	7133.08
1158.84	6961.55
1159.86	7006.74
1160.88	6997.26
1161.9	7078.84
1162.92	7025.33
1163.94	6976.57
1164.96	7164.33
1165.98	7120.87
1167	7030.35
1168.02	7042.67
1169.04	7090.67
1170.05	7065.08
1171.07	7104.97
1172.09	7016.08
1173.11	7124.98
1174.13	7037.21
1175.15	7015.41
1176.17	7065.98
1177.18	7054.78
1178.2	7083.26
1179.22	7101.46
1180.24	7066.89
1181.25	7114.16
1182.27	7123.95
1183.29	7138.56
1184.31	7174.83
1185.33	7099.9
1186.34	6961.69
1187.36	7064.75
1188.38	7041.45
1189.39	7177.49
1190.41	7099.75
1191.43	7036.52
1192.44	7133.29
1193.46	7095.86
1194.47	7194.89
1195.49	7132.14
1196.51	7062.66
1197.52	7151.91
1198.54	7050.73
1199.55	7125.43
1200.57	7110.22
1201.59	7126.62
1202.6	7145.7
1203.62	7143.3
1204.63	7165.56
1205.65	7122.33
1206.66	7071.77
1207.68	7167.89
1208.69	7152.98
1209.7	7101.85
1210.72	7182.46
1211.73	7085.33
1212.75	7115.71
1213.76	7053.6
1214.78	7163.15
1215.79	7294.73
1216.8	7152.11
1217.82	7156.03
1218.83	7157.82
1219.84	7182.24
1220.86	7146.47
1221.87	7248.75
1222.88	7196.71
1223.9	7148.01
1224.91	7193.15
1225.92	7150.12
1226.93	7241.11
1227.95	7226.05
1228.96	7186.36
1229.97	7150.46
1230.98	7151.31
1232	7181.47
1233.01	7188.49
1234.02	7153.46
1235.03	7267.51
1236.04	7184.37
1237.06	7240.93
1238.07	7329.71
1239.08	7234.36
1240.09	7183.09
1241.1	7263.77
1242.11	7197.48
1243.12	7274.35
1244.13	7200.65
1245.14	7193.28
1246.15	7296.25
1247.16	7381.68
1248.17	7127.77
1249.18	7119.27
1250.19	7166.84
1251.21	7240.56
1252.22	7161.64
1253.22	7225.35
1254.23	7173.44
1255.24	7232.67
1256.25	7135.63
1257.26	7317.51
1258.27	7153.62
1259.28	7245.83
1260.29	7213.11
1261.3	7199.65
1262.31	7237.15
1263.32	7288.43
1264.32	7183
1265.33	7211.03
1266.34	7175.33
1267.35	7141.4
1268.36	7193.78
1269.36	7230.05
1270.37	7193.36
1271.38	7220.64
1272.39	7160.37
1273.4	7238.39
1274.4	7226.97
1275.41	7259.68
1276.42	7206.98
1277.42	7272.97
1278.43	7235.88
1279.44	7267.57
1280.45	7286.86
1281.45	7150.41
1282.46	7374.51
1283.47	7185.66
1284.47	7203.44
1285.48	7271.7
1286.48	7326.03
1287.49	7178.42
1288.5	7300.22
1289.5	7271.5
1290.51	7273.02
1291.51	7287.85
1292.52	7247
1293.52	7313.35
1294.53	7280.78
1295.53	7161.04
1296.54	7211.51
1297.55	7256.72
1298.55	7215.89
1299.55	7307.97
1300.56	7164.96
1301.56	7211.35
1302.57	7224.01
1303.57	7208.67
1304.58	7258.71
1305.58	7275.37
1306.58	7324.79
1307.59	7309.25
1308.59	7342.33
1309.6	7247.52
1310.6	7188.89
1311.6	7259.96
1312.6	7315.66
1313.61	7235.2
1314.61	7223.45
1315.62	7325.82
1316.62	7247
1317.62	7265.41
1318.62	7389.09
1319.63	7354.65
1320.63	7333.56
1321.63	7224.98
1322.63	7410.09
1323.63	7293.06
1324.64	7430.08
1325.64	7364.55
1326.64	7315.9
1327.64	7342.48
1328.64	7335.67
1329.64	7319.01
1330.64	7272
1331.65	7344.25
1332.65	7305.29
1333.65	7409.18
1334.65	7349.77
1335.65	7340.27
1336.65	7437.88
1337.65	7348.38
1338.65	7332.21
1339.65	7364.61
1340.65	7502.9
1341.65	7407.08
1342.65	7289.2
1343.65	7441.71
1344.65	7325.05
1345.65	7396.55
1346.65	7307.4
1347.65	7298.07
1348.65	7429.2
1349.65	7299.27
1350.65	7386.06
1351.65	7436.35
1352.65	7430.3
1353.65	7377.55
1354.64	7457.31
1355.64	7280.81
1356.64	7317.59
1357.64	7483.98
1358.64	7299.49
1359.64	7494.58
1360.63	7366.13
1361.63	7436.85
1362.63	7296.92
1363.63	7481.13
1364.63	7396.56
1365.62	7431.31
1366.62	7354.82
1367.62	7458.72
1368.61	7410.18
1369.61	7488.7
1370.61	7421.99
1371.6	7352.15
1372.6	7388.55
1373.6	7370.69
1374.6	7460.84
1375.59	7481.14
1376.59	7445.63
1377.58	7352.61
1378.58	7418.82
1379.58	7563.33
1380.57	7369.72
1381.57	7378.9
1382.56	7450.39
1383.56	7423.76
1384.55	7554.66
1385.55	7441.89
1386.55	7444.87
1387.54	7463.37
1388.53	7508.48
1389.53	7406.66
1390.52	7525.41
1391.52	7554.14
1392.51	7494.62
1393.51	7339.87
1394.5	7433.63
1395.5	7478.67
1396.49	7390.14
1397.49	7419.41
1398.48	7377.87
1399.47	7438.92
1400.47	7399.91
1401.46	7465.19
1402.45	7451.49
1403.45	7369.68
1404.44	7511.61
1405.43	7439.02
1406.43	7366.58
1407.42	7385.17
1408.41	7381.07
1409.4	7524.88
1410.4	7436.08
1411.39	7340.83
1412.38	7493.16
1413.38	7444.31
1414.37	7510.79
1415.36	7636.72
1416.35	7451.09
1417.34	7541.28
1418.33	7521.26
1419.33	7449.9
1420.32	7428.16
1421.31	7521.98
1422.3	7476.12
1423.29	7528.14
1424.28	7597.63
1425.27	7523.97
1426.26	7527.94
1427.26	7477.25
1428.24	7581.5
1429.24	7478.57
1430.23	7573.66
1431.22	7430.75
1432.21	7524.86
1433.2	7578.76
1434.19	7422.53
1435.18	7515.37
1436.17	7596.66
1437.16	7601.03
1438.15	7514.69
1439.14	7616
1440.13	7600.68
1441.12	7703.58
1442.1	7651.89
1443.09	7620.18
1444.08	7601.13
1445.07	7518.31
1446.06	7482.15
1447.05	7639.4
1448.04	7647.58
1449.03	7581.12
1450.01	7568.55
1451	7549.96
1451.99	7576.04
1452.98	7580.84
1453.97	7584.02
1454.95	7616.79
1455.94	7499.73
1456.93	7602.31
1457.92	7747.74
1458.9	7629.64
1459.89	7696.76
1460.88	7573.79
1461.87	7581.01
1462.85	7688.03
1463.84	7568.92
1464.82	7750.29
1465.81	7495.76
1466.8	7677.13
1467.79	7750.12
1468.77	7652.23
1469.76	7647.55
1470.74	7647.62
1471.73	7622.03
1472.71	7683.66
1473.7	7552.86
1474.69	7572.61
1475.67	7665.74
1476.66	7561.13
1477.64	7566.26
1478.63	7618.9
1479.61	7632.52
1480.6	7698.7
1481.58	7483.55
1482.57	7550.52
1483.55	7660.19
1484.54	7588.94
1485.52	7636.54
1486.51	7797.9
1487.49	7693.88
1488.47	7573.52
1489.46	7606.14
1490.44	7749.69
1491.43	7633.18
1492.41	7598.76
1493.39	7681.2
1494.38	7565.4
1495.36	7576.34
1496.34	7620.47
1497.33	7620.66
1498.31	7717.71
1499.29	7620.76
1500.28	7602.51
1501.26	7605.08
1502.24	7580.63
1503.22	7464.82
1504.21	7577.54
1505.19	7661.95
1506.17	7562.32
1507.15	7746.1
1508.13	7591.27
1509.12	7636.26
1510.1	7660.89
1511.08	7610.21
1512.06	7697.1
1513.04	7619.32
1514.02	7623.2
1515.01	7714.1
1515.99	7774.69
1516.97	7524.07
1517.95	7702.16
1518.93	7574.17
1519.91	7624.93
1520.89	7656.54
1521.87	7669.13
1522.85	7660.19
1523.83	7675.33
1524.81	7683.96
1525.79	7714.03
1526.77	7599.46
1527.75	7611.01
1528.73	7690.29
1529.71	7619.23
1530.69	7643.89
1531.67	7628.5
1532.65	7731.89
1533.63	7832.81
1534.61	7665.32
1535.59	7780.27
1536.57	7704.69
1537.55	7657.01
1538.52	7666.7
1539.5	7610.02
1540.48	7719.12
1541.46	7713.35
1542.44	7745.6
1543.42	7768.24
1544.39	7772.91
1545.37	7877.62
1546.35	7768.53
1547.33	7802.45
1548.31	7691.48
1549.28	7725.15
1550.26	7778.12
1551.24	7697.65
1552.22	7811.6
1553.19	7747.07
1554.17	7650.51
1555.15	7656.74
1556.12	7664.86
1557.1	7614.38
1558.08	7708.99
1559.05	7761.9
1560.03	7672.23
1561.01	7728.98
1561.98	7708.06
1562.96	7678.04
1563.93	7647.52
1564.91	7675.11
1565.89	7722.36
1566.86	7758.44
1567.84	7701.99
1568.81	7679.01
1569.79	7604.48
1570.76	7680.1
1571.74	7787.71
1572.71	7853.45
1573.69	7725.98
1574.66	7744.34
1575.64	7669.7
1576.61	7710.34
1577.59	7715.84
1578.56	7663.66
1579.54	7730.28
1580.51	7787.53
1581.48	7689.38
1582.46	7800.46
1583.43	7773.95
1584.41	7778.6
1585.38	7578.21
1586.35	7740.91
1587.33	7667.61
1588.3	7812.8
1589.27	7816.47
1590.25	7687.52
1591.22	7746.2
1592.19	7834.67
1593.17	7654.53
1594.14	7921.11
1595.11	7646.75
1596.08	7755.04
1597.06	7686.57
1598.03	7793.42
1599	7719.29
1599.97	7791.76
1600.94	7679.08
1601.92	7695.13
1602.89	7843.98
1603.86	7800.2
1604.83	7824.47
1605.8	7866.31
1606.77	7787.08
1607.75	7695.8
1608.72	7815.44
1609.69	7799.9
1610.66	7724.87
1611.63	7670.95
1612.6	7707.89
1613.57	7831.35
1614.54	7613.82
1615.51	7817.77
1616.48	7654.48
1617.45	7725.92
1618.42	7781.86
1619.39	7643.45
1620.36	7766.33
1621.33	7926.72
1622.3	7865.86
1623.27	7696.09
1624.24	7707.32
1625.21	7672.12
1626.18	7746.85
1627.15	7721.81
1628.12	7729.97
1629.09	7722.9
1630.05	7814.8
1631.02	7765.13
1631.99	7779.95
1632.96	7620.27
1633.93	7699.98
1634.9	7866.35
1635.87	7725.32
1636.83	7855.17
1637.8	7788.73
1638.77	7930.15
1639.74	7985.85
1640.71	7848.63
1641.67	7686.37
1642.64	7812.34
1643.61	7784.31
1644.58	7620.72
1645.54	7667.29
1646.51	7766.44
1647.48	7646.87
1648.44	7792.4
1649.41	7879.98
1650.38	7706.12
1651.34	7823.21
1652.31	7804.51
1653.28	7747.84
1654.24	7720.87
1655.21	7804.66
1656.17	7754.54
1657.14	7898.96
1658.11	7755.62
1659.07	7741.71
1660.04	7792.2
1661	7909.89
1661.97	7894.67
1662.94	7809.61
1663.9	7708.48
1664.87	7867.95
1665.83	7698.01
1666.79	7729.22
1667.76	7859.54
1668.72	7771.37
1669.69	7792.62
1670.65	7841.8
1671.62	7679.44
1672.58	7740.98
1673.55	7755.17
1674.51	7787.58
1675.47	7818.28
1676.44	7859.34
1677.4	7789.22
1678.36	7818.2
1679.33	7764.86
1680.29	7701.88
1681.26	7787.39
1682.22	7838.78
1683.18	7881.77
1684.14	7784.72
1685.11	7794.33
1686.07	7750.72
1687.03	7838.68
1688	7779.46
1688.96	7853.98
1689.92	7780.23
1690.88	7745.39
1691.85	7764.88
1692.81	7641.3
1693.77	7799.86
1694.73	7740.83
1695.69	7642.46
1696.65	7714.88
1697.62	7813.07
1698.58	7710.43
1699.54	7736.1
1700.5	7691.19
1701.46	7763.07
1702.42	7656.52
1703.38	7775.26
1704.35	7736.01
1705.31	7679.58
1706.27	7738.39
1707.23	7800.27
1708.19	7801.01
1709.15	7785.08
1710.11	7758.31
1711.07	7712.01
1712.03	7689.01
1712.99	7669.09
1713.95	7843.83
1714.91	7750.87
1715.87	7724.99
1716.83	7722
1717.79	7796.46
1718.75	7709.1
1719.7	7784.31
1720.66	7721.23
1721.62	7736.1
1722.58	7862.82
1723.54	7686.54
1724.5	7694.87
1725.46	7713.83
1726.42	7723.38
1727.38	7727.58
1728.33	7597.68
1729.29	7779.09
1730.25	7683.05
1731.21	7788.37
1732.17	7779.44
1733.12	7786.4
1734.08	7805.16
1735.04	7922.14
1736	7806.24
1736.95	7755.62
1737.91	7734.18
1738.87	7875.06
1739.82	7881.98
1740.78	7865.19
1741.74	7795.24
1742.7	7844.85
1743.65	7902.4
1744.61	7775.58
1745.57	7796.11
1746.52	7783.17
1747.48	7659.37
1748.43	7816.23
1749.39	7736.5
1750.35	7766.21
1751.3	7812.16
1752.26	7788.39
1753.22	7743.34
1754.17	7686.13
1755.12	7599.85
1756.08	7686.34
1757.04	7611.64
1757.99	7728.75
1758.95	7776.98
1759.9	7775.58
1760.86	7695.17
1761.81	7685.33
1762.77	7733.47
1763.72	7783.18
1764.67	7784.44
1765.63	7791.24
1766.58	7662.72
1767.54	7702.85
1768.49	7828.89
1769.45	7742.8
1770.4	7758.91
1771.35	7740.19
1772.31	7720.44
1773.26	7777.35
1774.21	7820.49
1775.17	7688.43
1776.12	7586.1
1777.07	7809.71
1778.03	7685.06
1778.98	7607.06
1779.93	7758.74
1780.88	7714.43
1781.84	7768.6
1782.79	7592.86
1783.74	7796.87
1784.69	7681.45
1785.64	7733.1
1786.6	7656.99
1787.55	7754.03
1788.5	7637.17
1789.45	7644.96
1790.4	7716.9
1791.36	7681.96
1792.31	7667.12
1793.26	7765.74
1794.21	7810.22
1795.16	7727.8
1796.11	7835.6
1797.06	7770.83
1798.01	7962.24
1798.97	7806.55
1799.92	7688.3
1800.87	7791.81
1801.82	7789.4
1802.77	7741.5
1803.72	7788.25
1804.67	7760.71
1805.62	7723.01
1806.57	7749.28
1807.52	7809.69
1808.47	7742.07
1809.42	7795.33
1810.37	7767.68
1811.32	7713.33
1812.27	7761.45
1813.21	7814.5
1814.16	7833.91
1815.11	7605.86
1816.06	7634.32
1817.01	7686.46
1817.96	7818.82
1818.91	7796.44
1819.86	7769.24
1820.8	7684.63
1821.75	7869.89
1822.7	7839.54
1823.65	7680.78
1824.6	7652.31
1825.55	7704.25
1826.49	7654.01
1827.44	7829.71
1828.39	7667.92
1829.34	7731.05
1830.28	7736.5
1831.23	7679.98
1832.18	7740.55
1833.12	7608.99
1834.07	7709.07
1835.02	7602.24
1835.97	7661.98
1836.91	7808.78
1837.86	7720.1
1838.81	7725.02
1839.75	7863.51
1840.7	7806.58
1841.64	7726.48
1842.59	7834.69
1843.54	7794.26
1844.48	7785.63
1845.43	7806.92
1846.37	7713.91
1847.32	7626.06
1848.27	7770.73
1849.21	7664.7
1850.16	7776.86
1851.1	7750.83
1852.05	7766.83
1852.99	7756.52
1853.94	7796.94
1854.88	7647.44
1855.83	7701.35
1856.77	7676.41
1857.72	7711.32
1858.66	7628.69
1859.6	7679.06
1860.55	7766.91
1861.49	7714.49
1862.44	7627.27
1863.38	7655.06
1864.32	7712.07
1865.27	7564.95
1866.21	7796.57
1867.15	7570.68
1868.1	7699.74
1869.04	7636.54
1869.99	7657.89
1870.93	7817.3
1871.87	7758.21
1872.81	7717.39
1873.76	7708.99
1874.7	7675.81
1875.64	7660.18
1876.58	7766.94
1877.53	7719.62
1878.47	7650.44
1879.41	7737.49
1880.35	7806.89
1881.29	7751.89
1882.24	7795
1883.18	7740.36
1884.12	7819.45
1885.06	7751
1886	7622.44
1886.95	7621.78
1887.89	7809.82
1888.83	7687.83
1889.77	7788.54
1890.71	7670.73
1891.65	7728.86
1892.59	7722.39
1893.53	7681.8
1894.47	7771.48
1895.41	7600.61
1896.35	7810.18
1897.29	7611.67
1898.23	7606.73
1899.17	7592.57
1900.11	7598.52
1901.05	7777.84
1901.99	7645.43
1902.93	7657.74
1903.87	7655.89
1904.81	7713.49
1905.75	7750.9
1906.69	7710.02
1907.63	7665.42
1908.57	7742.05
1909.51	7611.93
1910.45	7763.72
1911.39	7622.97
1912.32	7618.03
1913.26	7744.33
1914.2	7706.07
1915.14	7813.14
1916.08	7770.43
1917.02	7688.14
1917.95	7650.15
1918.89	7635.32
1919.83	7576.12
1920.77	7655.31
1921.71	7703.17
1922.64	7742.28
1923.58	7591.06
1924.52	7630.4
1925.46	7766.76
1926.39	7625.25
1927.33	7704.46
1928.27	7744.1
1929.2	7673.73
1930.14	7677.08
1931.08	7685.84
1932.01	7783.56
1932.95	7784.98
1933.89	7678.92
1934.82	7610.52
1935.76	7789.55
1936.7	7675.51
1937.63	7618.46
1938.57	7771.28
1939.5	7733.79
1940.44	7693.86
1941.37	7606.85
1942.31	7664.39
1943.25	7740.95
1944.18	7618.82
1945.11	7696.84
1946.05	7598.42
1946.99	7596.73
1947.92	7723.75
1948.86	7792.46
1949.79	7619.33
1950.73	7761.7
1951.66	7713.67
1952.59	7593.89
1953.53	7737.58
1954.46	7574.36
1955.4	7742.14
1956.33	7797.06
1957.26	7677.2
1958.2	7631.73
1959.13	7683.08
1960.06	7571.85
1961	7662.06
1961.93	7656.23
1962.86	7653.91
1963.8	7677.03
1964.73	7681.71
1965.66	7626.25
1966.6	7620.64
1967.53	7658.65
1968.46	7810.35
1969.4	7792
1970.33	7795.26
1971.26	7641.8
1972.19	7701.92
1973.13	7625.14
1974.06	7605.06
1974.99	7698.84
1975.92	7648.45
1976.85	7700.74
1977.79	7639.96
1978.72	7734.04
1979.65	7729.71
1980.58	7646.25
1981.51	7663.08
1982.44	7657.87
1983.37	7679.11
1984.31	7621.59
1985.24	7837.37
1986.17	7627.89
1987.1	7816.11
1988.03	7713.6
1988.96	7605.6
1989.89	7682.22
1990.82	7676.75
1991.75	7602.49
1992.68	7727.55
1993.61	7777.93
1994.54	7727
1995.47	7667.04
1996.4	7738.51
1997.33	7637.82
1998.26	7687.56
1999.19	7712.85
2000.12	7668.69
2001.05	7630.1
2001.98	7669.42
2002.9	7752.64
2003.84	7677.74
2004.76	7700.69
2005.69	7744.67
2006.62	7763.51
2007.55	7615.7
2008.48	7802.23
2009.41	7756.79
2010.33	7739.45
2011.26	7689.56
2012.19	7635.67
2013.12	7669.69
2014.05	7682.15
2014.97	7590.06
2015.9	7788.52
2016.83	7604.78
2017.76	7733.76
2018.68	7678.75
2019.61	7755.18
2020.54	7653.48
2021.47	7747.05
2022.39	7630.87
2023.32	7630.41
2024.25	7661.9
2025.18	7733.63
2026.1	7655.53
2027.03	7733.93
2027.95	7699.26
2028.88	7686.19
2029.81	7704.29
2030.73	7631.92
2031.66	7750.68
2032.58	7691.02
2033.51	7682.11
2034.44	7813.21
2035.36	7724.33
2036.29	7662.8
2037.21	7847.65
2038.14	7693.31
2039.06	7657.98
2039.99	7784.01
2040.91	7679.25
2041.84	7644.43
2042.76	7661.44
2043.69	7828.89
2044.61	7603.93
2045.54	7713.04
2046.46	7651.21
2047.39	7615.73
2048.31	7700.73
2049.24	7684.47
2050.16	7775.56
2051.08	7614.76
2052.01	7741.25
2052.93	7711.12
2053.86	7592.1
2054.78	7571.45
2055.7	7631.03
2056.63	7632.56
2057.55	7629.5
2058.47	7686.76
2059.39	7623.05
2060.32	7593.12
2061.24	7616.58
2062.16	7675.49
2063.09	7589.11
2064.01	7711.77
2064.93	7544.96
2065.85	7603.45
2066.78	7672.6
2067.7	7693.33
2068.62	7518.11
2069.54	7671.46
2070.47	7641.24
2071.39	7648.6
2072.31	7667.04
2073.23	7718.54
2074.15	7628.81
2075.07	7767.89
2076	7544.53
2076.92	7627.43
2077.84	7584.3
2078.76	7639.27
2079.68	7678.92
2080.6	7593.67
2081.52	7636.35
2082.44	7663.29
2083.36	7596.05
2084.28	7546.89
2085.2	7497.19
2086.12	7567.94
2087.04	7662.78
2087.96	7657.79
2088.88	7642.61
2089.8	7691.63
2090.72	7517.72
2091.64	7596.8
2092.56	7647.77
2093.48	7719.55
2094.4	7574.48
2095.32	7661.84
2096.24	7531.02
2097.16	7581.48
2098.08	7657.6
2099	7623.67
2099.92	7595.64
2100.84	7648.39
2101.75	7648.96
2102.67	7577.72
2103.59	7657.23
2104.51	7608.33
2105.43	7577.27
2106.35	7542.37
2107.26	7488.37
2108.18	7609.08
2109.1	7577.95
2110.02	7613.2
2110.94	7607.02
2111.85	7585.45
2112.77	7554.62
2113.69	7586.27
2114.61	7613.44
2115.52	7635.01
2116.44	7672.91
2117.36	7622.55
2118.27	7621.31
2119.19	7681.03
2120.11	7578.91
2121.02	7552.01
2121.94	7549.54
2122.86	7594.59
2123.77	7599.18
2124.69	7531.72
2125.61	7648.52
2126.52	7590.82
2127.44	7599.29
2128.35	7655.88
2129.27	7610.98
2130.19	7618.92
2131.1	7589.35
2132.02	7585.91
2132.93	7561.78
2133.85	7575.79
2134.76	7599.37
2135.68	7638.52
2136.59	7574.14
2137.51	7634.05
2138.42	7629.46
2139.34	7665.87
2140.25	7631.01
2141.17	7610.95
2142.08	7597.28
2143	7574.56
2143.91	7600.69
2144.82	7661.95
2145.74	7622.17
2146.65	7585.95
2147.56	7625.79
2148.48	7629.53
2149.39	7611.43
2150.31	7569.69
2151.22	7634.73
2152.13	7569.96
2153.05	7654.3
2153.96	7585.29
2154.87	7719.08
2155.79	7635.26
2156.7	7687.46
2157.61	7577.16
2158.52	7634.68
2159.44	7508.8
2160.35	7551.84
2161.26	7487.37
2162.17	7465.06
2163.09	7579.23
2164	7618.31
2164.85	7613.59
2165.76	7590.02
2166.68	7587.28
2167.59	7596.61
2168.51	7710.29
2169.42	7642.08
2170.34	7756.43
2171.26	7618.77
2172.17	7539.92
2173.09	7486.75
2174	7589.07
2174.92	7700.93
2175.83	7612.68
2176.75	7621.57
2177.66	7615.64
2178.58	7611.1
2179.49	7589.62
2180.41	7618.33
2181.32	7566.63
2182.24	7591.06
2183.15	7672.61
2184.06	7530.59
2184.98	7636.75
2185.89	7641.54
2186.81	7670.36
2187.72	7586.88
2188.64	7643.69
2189.55	7578.74
2190.46	7439.56
2191.38	7525.46
2192.29	7623.56
2193.2	7655.85
2194.12	7785.79
2195.03	7600.78
2195.94	7679.14
2196.85	7689
2197.77	7629.11
2198.68	7679.04
2199.59	7665.99
2200.51	7577.06
2201.42	7665.52
2202.33	7579.81
2203.24	7592.21
2204.16	7505.99
2205.07	7450.51
2205.98	7607.36
2206.89	7635.1
2207.8	7592.4
2208.71	7553.31
2209.63	7563.91
2210.54	7591.58
2211.45	7586.35
2212.36	7591.1
2213.27	7565.57
2214.18	7517.92
2215.09	7640.36
2216	7566.1
2216.92	7614.37
2217.83	7656.43
2218.74	7751.22
2219.65	7596.53
2220.56	7740.4
2221.47	7679.73
2222.38	7604.89
2223.29	7529.67
2224.2	7537.87
2225.11	7770.85
2226.02	7594.41
2226.93	7589.27
2227.84	7615.01
2228.75	7645.6
2229.66	7673.28
2230.57	7572.79
2231.48	7565.76
2232.39	7681.17
2233.29	7590.99
2234.2	7588.93
2235.11	7710.17
2236.02	7584.29
2236.93	7647.11
2237.84	7626.12
2238.75	7595.3
2239.66	7620.7
2240.56	7569.09
2241.47	7571.89
2242.38	7579.47
2243.29	7609.49
2244.2	7655.09
2245.11	7512.8
2246.01	7674.36
2246.92	7653.61
2247.83	7612.5
2248.74	7560.69
2249.64	7543.42
2250.55	7598.42
2251.46	7651.44
2252.37	7528.57
2253.27	7479.91
2254.18	7550.4
2255.09	7747.85
2255.99	7585.52
2256.9	7514.52
2257.81	7622.98
2258.71	7531.11
2259.62	7546.39
2260.53	7487.04
2261.43	7664.83
2262.34	7575.03
2263.25	7507.86
2264.15	7589.89
2265.06	7489.28
2265.96	7714.81
2266.87	7587.65
2267.77	7512.27
2268.68	7602.39
2269.59	7549.96
2270.49	7568.42
2271.4	7653.15
2272.3	7510.92
2273.2	7567.95
2274.11	7537.55
2275.02	7496.63
2275.92	7456.87
2276.82	7605.04
2277.73	7533.85
2278.64	7597.34
2279.54	7591.09
2280.44	7485.41
2281.35	7562.48
2282.25	7687.12
2283.16	7540.84
2284.06	7609.86
2284.96	7601.49
2285.87	7515.15
2286.77	7614.65
2287.67	7534.61
2288.58	7528.2
2289.48	7565.13
2290.38	7478.4
2291.29	7606.67
2292.19	7453.48
2293.09	7648.41
2294	7499.27
2294.9	7627.92
2295.8	7541.67
2296.7	7537.87
2297.61	7530.21
2298.51	7507.44
2299.41	7461.2
2300.31	7491.61
2301.22	7539.21
2302.12	7491.48
2303.02	7427.43
2303.92	7453.27
2304.82	7631.02
2305.72	7581
2306.63	7615.98
2307.53	7629.76
2308.43	7660.67
2309.33	7551.47
2310.23	7486.22
2311.13	7627.26
2312.03	7532.32
2312.94	7537.15
2313.84	7544.84
2314.74	7585.58
2315.64	7617.67
2316.54	7566.64
2317.44	7560.96
2318.34	7558.1
2319.24	7551.17
2320.14	7514.4
2321.04	7563.38
2321.94	7441.75
2322.84	7486.12
2323.74	7499.68
2324.64	7481.59
2325.54	7558.34
2326.44	7411.33
2327.34	7595.03
2328.24	7420.95
2329.14	7477.52
2330.03	7571.53
2330.93	7526.55
2331.83	7542.91
2332.73	7586.25
2333.63	7599.03
2334.53	7461.6
2335.43	7504.59
2336.33	7512.35
2337.23	7647.73
2338.12	7457.23
2339.02	7446.96
2339.92	7628.37
2340.82	7560.13
2341.72	7550.66
2342.61	7522.93
2343.51	7504.09
2344.41	7466.85
2345.31	7579.22
2346.2	7419.95
2347.1	7487.61
2348	7532.49
2348.9	7515
2349.79	7488.69
2350.69	7489.17
2351.59	7546.87
2352.48	7489.83
2353.38	7447.97
2354.28	7373.78
2355.18	7500.29
2356.07	7493.58
2356.97	7509.81
2357.86	7534.74
2358.76	7518.43
2359.66	7444.3
2360.55	7464.1
2361.45	7525.25
2362.34	7474.1
2363.24	7492.78
2364.14	7447.82
2365.03	7406.89
2365.93	7568.98
2366.82	7605.84
2367.72	7558.93
2368.61	7461.18
2369.51	7488.06
2370.4	7504.07
2371.3	7473.67
2372.19	7526.42
2373.09	7496.23
2373.98	7418.91
2374.88	7528.41
2375.77	7462.39
2376.67	7526.87
2377.56	7589.06
2378.45	7553.67
2379.35	7636.63
2380.24	7442.5
2381.14	7473.06
2382.03	7510.39
2382.92	7534.83
2383.82	7556.27
2384.71	7423.03
2385.6	7526.62
2386.5	7434.56
2387.39	7539.46
2388.28	7463.49
2389.18	7398.45
2390.07	7499.94
2390.96	7412.88
2391.86	7530.66
2392.75	7414.67
2393.64	7555.63
2394.53	7479.47
2395.42	7590.24
2396.32	7639.42
2397.21	7536.57
2398.1	7447.07
2398.99	7532.26
2399.89	7505.08
2400.78	7571.97
2401.67	7482.49
2402.56	7504.68
2403.45	7535.64
2404.35	7394.25
2405.24	7374.95
2406.13	7438.45
2407.02	7424.39
2407.91	7443.82
2408.8	7494.5
2409.69	7387.4
2410.58	7553.6
2411.47	7363.61
2412.36	7446.1
2413.26	7495.93
2414.15	7471
2415.04	7409.14
2415.93	7525.46
2416.82	7494.8
2417.71	7613.48
2418.6	7529.94
2419.49	7509.28
2420.38	7539.19
2421.27	7386.34
2422.16	7597.46
2423.05	7434.73
2423.93	7519.16
2424.82	7465.84
2425.71	7495.44
2426.6	7447.05
2427.49	7461.28
2428.38	7323.29
2429.27	7430.26
2430.16	7493.29
2431.05	7512.72
2431.94	7490.88
2432.82	7461.88
2433.71	7475.02
2434.6	7549.35
2435.49	7464.32
2436.38	7452.55
2437.27	7506.45
2438.15	7393.96
2439.04	7455.83
2439.93	7397.77
2440.82	7564.39
2441.71	7380.06
2442.59	7423.31
2443.48	7476.04
2444.37	7460.1
2445.26	7472.4
2446.14	7448.06
2447.03	7456.97
2447.92	7527.3
2448.8	7378.72
2449.69	7444.62
2450.58	7482.24
2451.46	7479.17
2452.35	7474.42
2453.24	7470.03
2454.12	7451.74
2455.01	7480.5
2455.9	7382.28
2456.78	7500.71
2457.67	7414.82
2458.56	7392.3
2459.44	7352.38
2460.33	7449.85
2461.21	7384.27
2462.1	7462.41
2462.98	7360.91
2463.87	7382.5
2464.75	7391.11
2465.64	7559.22
2466.53	7516.99
2467.41	7476.95
2468.29	7554.24
2469.18	7464.09
2470.06	7446.44
2470.95	7490.74
2471.83	7437.92
2472.72	7454.28
2473.6	7434.08
2474.49	7404.7
2475.37	7315.98
2476.26	7461.76
2477.14	7398.95
2478.02	7322.09
2478.91	7403.65
2479.79	7309.13
2480.67	7271.06
2481.56	7319.1
2482.44	7445.79
2483.33	7506.28
2484.21	7529.21
2485.09	7475.81
2485.97	7433.06
2486.86	7469.61
2487.74	7445.97
2488.62	7402.18
2489.51	7488.09
2490.39	7581.9
2491.27	7620.33
2492.15	7505.14
2493.04	7423.17
2493.92	7514.55
2494.8	7466.09
2495.68	7448.95
2496.56	7345.15
2497.45	7358.49
2498.33	7456.49
2499.21	7382.21
2500.09	7410.24
2500.97	7514.65
2501.86	7432.19
2502.74	7412.56
2503.62	7525.03
2504.5	7415.39
2505.38	7482.07
2506.26	7530.54
2507.14	7415.42
2508.02	7514.22
2508.9	7460.61
2509.78	7482.1
2510.67	7423.35
2511.55	7419.81
2512.43	7551.17
2513.31	7492.03
2514.19	7473.25
2515.07	7399.08
2515.95	7502.46
2516.83	7476.15
2517.71	7483.56
2518.59	7556.05
2519.47	7400.64
2520.35	7377.99
2521.23	7460.91
2522.11	7392.73
2522.99	7362.64
2523.86	7419.74
2524.74	7443.04
2525.62	7412.87
2526.5	7360.27
2527.38	7432.36
2528.26	7409.64
2529.14	7479.99
2530.02	7503
2530.9	7548.29
2531.77	7438.47
2532.65	7382.43
2533.53	7452.69
2534.41	7460.02
2535.29	7438.81
2536.16	7399.92
2537.04	7360.01
2537.92	7490.03
2538.8	7523.34
2539.68	7425.31
2540.55	7472.85
2541.43	7522.42
2542.31	7510.37
2543.19	7447.41
2544.06	7554.29
2544.94	7510.54
2545.82	7405.74
2546.69	7522.05
2547.57	7448.78
2548.45	7503.6
2549.32	7489.56
2550.2	7440.44
2551.08	7551.26
2551.95	7387.08
2552.83	7365.43
2553.71	7345.81
2554.58	7367.48
2555.46	7406.9
2556.33	7436.61
2557.21	7396.39
2558.09	7486.15
2558.96	7395.33
2559.84	7567.88
2560.71	7357.04
2561.59	7427.3
2562.46	7408.68
2563.34	7416.05
2564.21	7372.23
2565.09	7359.25
2565.96	7471.65
2566.84	7373.28
2567.71	7377.27
2568.59	7368.24
2569.46	7381.68
2570.34	7417.17
2571.21	7352.34
2572.09	7312.34
2572.96	7447.28
2573.84	7278.01
2574.71	7356.71
2575.58	7477.38
2576.46	7251.99
2577.33	7439.31
2578.21	7477.08
2579.08	7410.35
2579.95	7484.95
2580.83	7425.62
2581.7	7349.01
2582.57	7206.6
2583.45	7400.55
2584.32	7346.99
2585.19	7366.72
2586.06	7343.27
2586.94	7369.86
2587.81	7320.12
2588.68	7255
2589.55	7441.43
2590.43	7209.76
2591.3	7315.31
2592.17	7290.79
2593.04	7323.56
2593.92	7299.23
2594.79	7486.71
2595.66	7318.01
2596.53	7464.87
2597.4	7266.33
2598.28	7375.03
2599.15	7369.16
2600.02	7328.22
2600.89	7323.93
2601.76	7266.35
2602.63	7378.09
2603.5	7278.91
2604.37	7400.8
2605.25	7373.56
2606.12	7476.89
2606.99	7373.97
2607.86	7410.49
2608.73	7273.14
2609.6	7363.16
2610.47	7425.33
2611.34	7396.88
2612.21	7356.25
2613.08	7305.51
2613.95	7372.28
2614.82	7266.55
2615.69	7251.63
2616.56	7426.81
2617.43	7367.52
2618.3	7384.88
2619.17	7351.68
2620.04	7388.47
2620.91	7380.13
2621.78	7324.66
2622.65	7483.14
2623.52	7314.91
2624.39	7321.34
2625.26	7327.7
2626.12	7435.33
2626.99	7354.41
2627.86	7382.5
2628.73	7291.51
2629.6	7274.36
2630.47	7370.97
2631.33	7457.47
2632.2	7366.12
2633.07	7300.24
2633.94	7382.61
2634.81	7354.28
2635.68	7414.21
2636.54	7304.52
2637.41	7340.52
2638.28	7365.78
2639.15	7334.75
2640.01	7351.23
2640.88	7277.58
2641.75	7287.51
2642.61	7308.92
2643.48	7375.27
2644.35	7317.75
2645.22	7381.68
2646.08	7292.05
2646.95	7297.39
2647.82	7388.45
2648.68	7436.61
2649.55	7403.12
2650.42	7259.27
2651.28	7353.44
2652.15	7337.55
2653.01	7300.25
2653.88	7421.11
2654.75	7347.98
2655.61	7267.31
2656.48	7307.1
2657.34	7256.18
2658.21	7362.06
2659.08	7408
2659.94	7386.83
2660.8	7311.47
2661.67	7268.02
2662.54	7354.86
2663.4	7404.44
2664.27	7407.38
2665.13	7268.64
2666	7261.85
2666.86	7383.11
2667.72	7351.97
2668.59	7227.78
2669.45	7323.28
2670.32	7264.05
2671.18	7463.14
2672.05	7345.11
2672.91	7323
2673.77	7445.11
2674.64	7358.36
2675.5	7369.88
2676.37	7355.89
2677.23	7372.61
2678.09	7279.62
2678.96	7286.56
2679.82	7316.09
2680.68	7349.32
2681.55	7259.3
2682.41	7362.85
2683.27	7335.61
2684.14	7326.35
2685	7283.14
2685.86	7278.05
2686.72	7432.83
2687.59	7357.73
2688.45	7325.88
2689.31	7451.07
2690.18	7178.24
2691.04	7308.97
2691.9	7287.69
2692.76	7346.89
2693.62	7294.6
2694.49	7365.43
2695.35	7214.68
2696.21	7313.86
2697.07	7236.33
2697.93	7213.12
2698.79	7395.14
2699.65	7300.14
2700.52	7198.31
2701.38	7259.01
2702.24	7374.55
2703.1	7302.18
2703.96	7300.66
2704.82	7201.63
2705.68	7311.61
2706.54	7332.8
2707.4	7269.11
2708.26	7349.72
2709.13	7293.32
2709.98	7212.02
2710.84	7345.63
2711.71	7210.57
2712.57	7296.68
2713.42	7240.08
2714.28	7251.49
2715.15	7219.06
2716	7281.93
2716.86	7186.79
2717.72	7375.11
2718.58	7327.08
2719.44	7262.01
2720.3	7231.15
2721.16	7248.14
2722.02	7259.34
2722.88	7259.58
2723.74	7350.95
2724.6	7300.63
2725.46	7289.17
2726.31	7297.13
2727.17	7364.82
2728.03	7319.05
2728.89	7356.14
2729.75	7196.43
2730.61	7380.92
2731.46	7262.32
2732.32	7278.3
2733.18	7283.68
2734.04	7203.07
2734.9	7212.43
2735.75	7273.18
2736.61	7358.26
2737.47	7257.9
2738.33	7293.09
2739.18	7349.17
2740.04	7259.17
2740.9	7254.28
2741.76	7130.11
2742.61	7162.6
2743.47	7319.81
2744.33	7136.94
2745.18	7244.01
2746.04	7242.22
2746.9	7265.53
2747.75	7177.28
2748.61	7210.18
2749.47	7154.47
2750.32	7191.81
2751.18	7257.34
2752.03	7154.06
2752.89	7265.58
2753.75	7114.56
2754.6	7247.15
2755.46	7103.65
2756.31	7128.79
2757.17	7249.44
2758.03	7187.71
2758.88	7292.81
2759.74	7153.99
2760.59	7316.04
2761.45	7218.81
2762.3	7172.34
2763.16	7285.05
2764.01	7235.51
2764.87	7143.02
2765.72	7231.26
2766.58	7185.22
2767.43	7248.83
2768.28	7289.58
2769.14	7205.95
2769.99	7118.62
2770.85	7324.47
2771.7	7274.18
2772.55	7199.86
2773.41	7105.35
2774.26	7113.89
2775.12	7212.71
2775.97	7181.61
2776.82	7241.89
2777.68	7254.48
2778.53	7164
2779.38	7310.25
2780.24	7219.7
2781.09	7159.29
2781.94	7291.06
2782.8	7076.85
2783.65	7192.04
2784.5	7308.22
2785.35	7249.39
2786.21	7223.04
2787.06	7310.45
2787.91	7303.85
2788.76	7175.37
2789.62	7172.12
2790.47	7124.68
2791.32	7165.04
2792.17	7243.76
2793.03	7225.27
2793.88	7187.95
2794.73	7188.81
2795.58	7183.92
2796.43	7217.03
2797.28	7209.19
2798.14	7278.54
2798.99	7204.23
2799.84	7206.57
2800.69	7192.29
2801.54	7204.32
2802.39	7070.98
2803.24	7228.93
2804.09	7163.17
2804.94	7256.53
2805.79	7208.98
2806.65	7187.6
2807.5	7190.44
2808.35	7185.17
2809.2	7256.73
2810.05	7093.7
2810.9	7236.42
2811.75	7185.81
2812.6	7138.9
2813.45	7285.3
2814.3	7211.42
2815.15	7120.62
2816	7173.97
2816.85	7064.4
2817.69	7091.17
2818.55	7147.55
2819.39	7197.27
2820.24	7123.47
2821.09	7163.21
2821.94	7128.28
2822.79	7110.18
2823.64	7148.07
2824.49	7186.48
2825.34	7145.66
2826.19	7186.71
2827.03	7103.46
2827.88	7191.86
2828.73	7146.06
2829.58	7174.72
2830.43	7214.11
2831.28	7167.03
2832.12	7103.6
2832.97	7130.86
2833.82	7100.17
2834.67	7142.56
2835.51	7229.8
2836.36	7154.51
2837.21	7063.58
2838.06	7119.95
2838.9	7181.25
2839.75	7154.4
2840.6	7172.76
2841.45	7237.37
2842.29	7169.14
2843.14	7207.58
2843.99	7152.64
2844.83	7249.92
2845.68	7135.09
2846.53	7192.32
2847.37	7222.74
2848.22	7137.18
2849.07	7131.17
2849.91	7102.71
2850.76	7144.48
2851.6	7178.41
2852.45	7116.22
2853.3	7190.94
2854.14	7044.52
2854.99	7058.47
2855.83	7098.9
2856.68	7090.96
2857.52	7242.57
2858.37	7100.53
2859.21	7159.77
2860.06	7079.39
2860.91	7065.41
2861.75	7048.63
2862.6	7078.14
2863.44	7119.34
2864.28	7025.7
2865.13	7113.55
2865.97	7064.23
2866.82	7150.87
2867.66	7158.89
2868.51	7158.16
2869.35	7014.55
2870.2	7108.47
2871.04	7100
2871.88	7042.49
2872.73	7142.75
2873.57	7082.98
2874.42	7033.03
2875.26	7020.4
2876.1	7015.59
2876.95	7021.16
2877.79	7094.26
2878.63	7150.88
2879.48	7083.64
2880.32	7072.27
2881.16	7231.42
2882.01	7153.65
2882.85	7169.76
2883.69	7105.35
2884.53	7151.47
2885.38	7016.8
2886.22	7092.24
2887.06	7158.62
2887.9	7151.77
2888.75	7145.28
2889.59	7213.58
2890.43	7107.87
2891.27	7158.7
2892.12	7144.09
2892.96	7069.89
2893.8	7030.37
2894.64	7001.42
2895.48	7025.82
2896.32	7031.3
2897.16	7138.38
2898.01	6970.37
2898.85	7059.79
2899.69	7072.12
2900.53	7028.12
2901.37	6980.01
2902.21	6991.74
2903.05	7069.92
2903.89	7040.4
2904.73	7018.44
2905.57	7101.64
2906.42	7024.14
2907.26	7056.01
2908.1	7078.07
2908.94	7058.68
2909.78	7039.22
2910.62	7141.63
2911.46	6953.44
2912.3	7072.53
2913.14	7037.8
2913.98	7120.92
2914.82	7057.31
2915.66	7089.53
2916.5	7074.95
2917.34	7059.45
2918.17	7024.33
2919.01	7133.29
2919.85	7120.99
2920.69	6953.37
2921.53	7207.84
2922.37	7106.77
2923.21	7139.78
2924.05	7115.44
2924.89	7085.33
2925.72	7064.87
2926.56	7054.39
2927.4	7065.39
2928.24	7115.27
2929.08	6976.72
2929.92	7014.73
2930.76	7028.9
2931.59	7013.7
2932.43	7099
2933.27	7029.39
2934.11	6965.09
2934.95	7028.78
2935.78	7079.67
2936.62	7061.54
2937.46	7002.81
2938.3	7065.08
2939.13	6990.52
2939.97	6989.09
2940.81	6956.95
2941.64	6989.07
2942.48	6989.18
2943.32	7064.39
2944.15	7045.37
2944.99	7032.95
2945.83	7015.57
2946.66	7080.97
2947.5	7127.42
2948.34	7096.03
2949.17	7126.16
2950.01	7041.02
2950.84	6987.92
2951.68	6921.61
2952.52	7024.28
2953.35	7066.92
2954.19	7127.69
2955.02	7065.02
2955.86	7020.07
2956.69	7007.58
2957.53	6902.52
2958.37	6902.53
2959.2	6962.81
2960.04	7129.96
2960.87	6981.1
2961.71	7029.03
2962.54	6952.44
2963.38	7018.26
2964.21	7008.85
2965.05	6975.03
2965.88	7097.23
2966.72	6860.17
2967.55	7057.21
2968.38	6991.55
2969.22	6976.91
2970.05	6947.6
2970.89	6945.77
2971.72	6955.27
2972.55	7021.26
2973.39	7050.02
2974.22	6996.94
2975.06	7026.35
2975.89	7030.77
2976.72	7073.55
2977.56	6995.98
2978.39	7018.23
2979.22	6960.94
2980.06	6940.35
2980.89	6973.18
2981.72	7000.36
2982.55	6993.04
2983.39	6964.37
2984.22	6987.64
2985.05	6929.28
2985.89	6887.33
2986.72	6879.59
2987.55	6999.45
2988.38	6931.76
2989.21	6942.81
2990.05	6977.92
2990.88	7010.82
2991.71	7042.8
2992.54	6876.9
2993.38	6986.27
2994.21	6901.69
2995.04	6917.25
2995.87	7045.83
2996.7	6976.01
2997.53	6929.8
2998.36	7002.03
2999.2	6971.73
3000.03	6976.92
3000.86	6974.15
3001.69	7043.43
3002.52	6944.93
3003.35	6942.36
3004.18	6953.26
3005.01	6985.24
3005.84	6964.33
3006.67	6973.77
3007.5	6907.14
3008.33	6988.01
3009.16	6959.82
3009.99	6930.45
3010.82	6902.07
3011.65	6977.2
3012.48	6841.17
3013.31	7050.41
3014.14	6961.86
3014.97	7041.29
3015.8	6922.06
3016.63	6958.91
3017.46	6872.49
3018.29	6969.8
3019.12	6846.12
3019.95	6974.07
3020.78	6992.05
3021.61	6831.32
3022.44	6828.7
3023.27	7008.69
3024.09	6925.6
3024.92	6879.6
3025.75	7015.16
3026.58	6910.27
3027.41	6804.44
3028.24	6962.47
3029.07	6929.31
3029.89	6956.99
3030.72	7075.52
3031.55	7022.43
3032.38	6992.93
3033.21	6982.62
3034.03	6991.85
3034.86	6968.86
3035.69	6975.83
3036.52	6890.62
3037.35	6902.02
3038.17	6901.5
3039	6989.04
3039.83	6950.3
3040.65	6893.48
3041.48	6797.5
3042.31	6926.86
3043.13	6918.98
3043.96	6865.38
3044.79	6900.52
3045.61	6900.45
3046.44	6903.01
3047.27	6826.15
3048.09	7007.12
3048.92	6885.83
3049.75	6894.89
3050.57	6894.12
3051.4	6947.89
3052.22	6928.19
3053.05	6961.32
3053.88	6914.67
3054.7	6829.63
3055.53	6910.05
3056.35	6860.24
3057.18	6938.24
3058.01	6959.41
3058.83	6941.73
3059.65	6880.4
3060.48	6985.53
3061.31	6982.8
3062.13	6808.38
3062.96	6955.32
3063.78	6951.9
3064.61	6984.01
3065.43	7036.4
3066.25	7011.86
3067.08	6948.14
3067.9	6936.42
3068.73	6962.21
3069.55	6966.15
3070.38	7045.17
3071.2	6866.22
3072.02	7029.14
3072.85	6925.05
3073.67	6990.71
3074.5	6939.05
3075.32	6932.73
3076.14	6938.9
3076.97	6916.35
3077.79	6956.04
3078.61	7006.62
3079.44	6922.53
3080.26	6863.89
3081.08	6982.79
3081.91	6930.71
3082.73	7010.86
3083.55	6833.79
3084.37	6917.52
3085.2	6974.5
3086.02	6996.46
3086.84	7038.22
3087.66	6921.96
3088.49	6900.25
3089.31	6929.66
3090.13	6892.04
3090.95	7008.96
3091.78	6863.59
3092.6	6976.22
3093.42	6872.15
3094.24	6974.07
3095.06	6933.41
3095.88	6852.32
3096.71	6967.23
3097.53	6802.49
3098.35	6988.08
3099.17	6985.38
3099.99	6966.36
3100.81	6900.68
3101.63	6884.39
3102.45	6923.35
3103.28	6872.74
3104.1	6772.93
3104.92	6944.78
3105.74	6892.62
3106.56	6884.48
3107.38	6908.77
3108.2	6859.21
3109.02	7018.12
3109.84	6874.54
3110.66	6924.61
3111.48	6916.01
3112.3	6904.62
3113.12	6942.56
3113.94	6952.38
3114.76	6988.98
3115.58	6980.75
3116.4	6862.81
3117.22	6940.41
3118.04	6876.36
3118.86	6863.68
3119.68	6753.65
3120.5	6891.98
3121.32	6844.71
3122.13	6823.36
3122.95	7016.09
3123.77	6891.17
3124.59	6985.41
3125.41	6841.23
3126.23	6993.85
3127.05	6922.38
3127.86	6929.11
3128.68	6971.48
3129.5	7020.65
3130.32	6898.35
3131.14	6936.44
3131.96	7024.87
3132.77	6998.11
3133.59	7010.52
3134.41	6959.6
3135.23	6963.89
3136.04	7028.05
3136.86	6877.49
3137.68	7024.29
3138.5	7029.62
3139.32	7012.33
3140.13	6880
3140.95	7006.83
3141.77	7061.18
3142.58	6979.07
3143.4	6928.74
3144.22	6981.45
3145.03	6967.52
3145.85	6985.28
3146.67	7015.5
3147.48	6996.47
3148.3	7110.98
3149.12	6976.31
3149.93	7032.92
3150.75	6972.69
3151.57	7073.16
3152.38	6896.38
3153.2	7013.97
3154.01	6908.71
3154.83	6985.75
3155.64	6943.52
3156.46	6933.21
3157.28	7043.78
3158.09	6972.87
3158.91	6892.31
3159.72	6928.71
3160.54	7058.55
3161.35	7038.12
3162.17	6937.39
3162.98	6916.62
3163.8	7002.36
3164.61	6954.16
3165.43	6997.71
3166.24	6932.84
3167.06	7042.78
3167.87	6978.03
3168.69	6958.9
3169.5	6995.15
3170.31	7012.08
3171.13	6917.2
3171.94	6945.13
3172.76	6978.77
3173.57	6984.19
3174.38	7062.81
3175.2	6970.31
3176.01	6988.87
3176.82	6979.59
3177.64	7019.25
3178.45	6924.96
3179.26	7035.61
3180.08	7111.6
3180.89	6957.79
3181.71	7093.9
3182.52	6949.27
3183.33	6995.45
3184.14	6942.63
3184.96	7058.74
3185.77	6987.37
3186.58	7032.39
3187.4	6998.77
3188.21	6936.72
3189.02	7119.14
3189.83	6969.93
3190.64	7046.84
3191.46	6960.66
3192.27	6960.91
3193.08	7009.37
3193.89	7072.43
3194.7	7046.71
3195.52	6854.27
3196.33	7034.45
3197.14	6944.72
3197.95	7049.72
3198.76	7033.45
3199.57	7053.01
3200.38	7007.29
3201.2	7101.51
3202.01	6859.52
3202.82	7072.96
3203.63	7015.15
3204.44	6995.33
3205.25	7113.73
3206.06	7036.57
3206.87	7147.23
3207.68	6999.07
3208.49	7133.31
3209.3	7149.51
3210.11	7031.53
3210.92	7051.28
3211.73	6991.39
3212.54	7050.38
3213.35	7003.3
3214.16	6952.23
3214.97	7015.84
3215.78	7032.8
3216.59	7039.22
3217.4	7019.47
3218.21	7055.02
3219.02	7087.55
3219.83	6950.94
3220.64	6945.65
3221.45	7023.08
3222.26	7000.68
3223.07	6946.98
3223.88	7033.79
3224.69	6966.19
3225.5	6996.13
3226.3	7044.82
3227.11	6901.76
3227.92	6931.69
3228.73	7006.04
3229.54	7019.2
3230.35	6965.57
3231.15	6986.4
3231.96	7023.3
3232.77	6954.85
3233.58	7022.69
3234.39	7001.44
3235.19	6940.11
3236	7024.44
3236.81	6989.95
3237.62	6892.38
3238.42	6967
3239.23	6977.09
3240.04	7001.73
3240.85	7027.15
3241.65	7013.1
3242.46	6911.44
3243.27	6894.87
3244.07	6934.51
3244.88	6944.3
3245.69	7009.93
3246.49	6930.48
3247.3	7038.42
3248.11	6934.35
3248.91	6901.36
3249.72	7053.03
3250.53	7050.9
3251.33	6836.06
3252.14	6986.25
3252.95	6947.94
3253.75	6927.4
3254.56	7034.01
3255.36	6906.67
3256.17	6877.51
3256.98	6920.22
3257.78	6921.94
3258.59	6925.04
3259.39	6943.93
3260.2	6955.52
3261	6926.38
3261.81	6926.9
3262.61	6972.66
3263.42	6856.5
3264.22	6859.83
3265.03	6867.19
3265.83	6923.12
3266.64	6934.88
3267.44	6956.58
3268.25	6940.46
3269.05	6952.84
3269.86	6908.99
3270.66	6945.54
3271.46	6964.2
3272.27	7023.3
3273.07	6906.54
3273.88	6966.36
3274.68	6940.4
3275.48	6843.82
3276.29	6841.42
3277.09	6865.42
3277.9	6939.36
3278.7	6980.66
3279.5	7064.1
3280.31	6944.52
3281.11	6949.69
3281.91	6944.44
3282.72	6903.68
3283.52	6963.98
3284.32	6913.73
3285.13	6943.4
3285.93	6854.53
3286.73	6845.16
3287.53	7010.74
3288.34	6934.35
3289.14	6938.21
3289.94	6839.15
3290.74	6875.19
3291.55	6878.27
3292.35	6951.27
3293.15	7020.19
3293.95	6879.45
3294.75	6896.42
3295.56	6831.34
3296.36	6872.16
3297.16	6898.39
3297.96	6968.08
3298.76	6968.61
3299.56	6985.88
3300.37	6927.53
3301.17	6920.9
3301.97	6843.33
3302.77	6885.92
3303.57	6903.22
3304.37	6958.8
3305.17	6805.68
3305.97	6952.05
3306.77	6917.86
3307.58	6881.66
3308.38	6953.26
3309.18	6932.76
3309.98	6922.41
3310.78	6968.1
3311.58	6841.23
3312.38	6882.7
3313.18	6993.41
3313.98	6877.55
3314.78	6957.88
3315.58	6923.79
3316.38	6852.26
3317.18	6960.22
3317.98	6889.16
3318.78	6946.52
3319.58	7012
3320.38	6963.26
3321.18	6829.01
3321.97	6894.54
3322.77	6912.83
3323.57	6950.9
3324.37	6922.57
3325.17	6963.36
3325.97	7013.52
3326.77	6864.53
3327.57	6989.76
3328.37	6921.21
3329.16	6961.73
3329.96	6894.73
3330.76	6928.82
3331.56	6829.64
3332.36	6898.47
3333.16	6901.98
3333.95	6951.73
3334.75	6861.21
3335.55	6913.27
3336.35	6816.61
3337.15	6963.87
3337.94	6799.83
3338.74	6824.69
3339.54	6743.33
3340.34	6888.15
3341.13	6733.88
3341.93	6766.49
3342.73	6830.4
3343.53	6801.9
3344.32	6822.27
3345.12	6882.96
3345.92	6796.76
3346.71	6905.57
3347.51	6765.82
3348.31	6885.07
3349.1	6798.79
3349.9	6894.82
3350.7	6764.39
3351.49	6818.86
3352.29	6861.58
3353.09	6839.04
3353.88	6888.14
3354.68	6711.16
3355.47	6824.84
3356.27	6846.15
3357.07	6780.48
3357.86	6847.62
3358.66	6802.07
3359.45	6799.94
3360.25	6826.43
3361.04	6870.97
3361.84	6848.45
3362.63	6860.59
3363.43	6884.94
3364.23	6982.39
3365.02	6880.6
3365.82	6783.68
3366.61	6921.45
3367.41	6876.85
3368.2	6850.51
3369	6973.84
3369.79	6900.04
3370.58	6867.9
3371.38	6766.34
3372.17	6907.58
3372.97	6928.56
3373.76	6890.2
3374.56	6782.99
3375.35	6964.36
3376.14	6793.02
3376.94	6865.66
3377.73	6749.31
3378.52	6975.28
3379.32	6903.03
3380.11	6906.86
3380.91	6863.98
3381.7	6803.8
3382.49	6812.41
3383.29	6834.15
3384.08	6792.36
3384.87	6745.99
3385.67	6797.62
3386.46	6825.12
3387.25	6869.76
3388.04	6770.16
3388.84	6700.56
3389.63	6773.63
3390.42	6834.06
3391.21	6691.97
3392.01	6834.87
3392.8	6788.27
3393.59	6868.1
3394.38	6637.61
3395.18	6818.39
3395.97	6800.12
3396.76	6850.81
3397.55	6777.42
3398.34	6770.19
3399.13	6862.34
3399.93	6824.8
3400.72	6832.86
3401.51	6834.04
3402.3	6751.21
3403.09	6732.89
3403.88	6828.41
3404.68	6753.19
3405.47	6710.55
3406.26	6761.58
3407.05	6814.07
3407.84	6862.33
3408.63	6812.48
3409.42	6861.64
3410.21	6771.35
3411	6758.47
3411.79	6792.12
3412.58	6822.97
3413.37	6874.48
3414.16	6803.3
3414.95	6737.09
3415.74	6745.96
3416.53	6768.92
3417.32	6719.56
3418.11	6732.09
3418.9	6704.42
3419.69	6765.58
3420.48	6827.71
3421.27	6827.43
3422.06	6777.18
3422.85	6822.38
3423.64	6824.27
3424.43	6789.69
3425.22	6832.86
3426.01	6806.03
3426.8	6799.22
3427.59	6717.42
3428.38	6693.93
3429.16	6760.36
3429.95	6675.01
3430.74	6692.43
3431.53	6682.98
3432.32	6785.2
3433.11	6751.71
3433.9	6707.29
3434.68	6741.35
3435.47	6668.76
3436.26	6624.13
3437.05	6758.68
3437.84	6582.67
3438.62	6663.07
3439.41	6683.09
3440.2	6634.99
3440.99	6734.11
3441.77	6703.06
3442.56	6640.31
3443.35	6675.15
3444.14	6795.21
3444.92	6724.33
3445.71	6731.43
3446.5	6707.55
3447.28	6600.91
3448.07	6699.29
3448.86	6686.98
3449.65	6663.6
3450.43	6672.87
3451.22	6670.04
3452.01	6641.57
3452.79	6671.75
3453.58	6671.12
3454.37	6791.8
3455.15	6635.96
3455.94	6747.7
3456.72	6640.21
3457.51	6730.37
3458.29	6617.89
3459.08	6719.34
3459.87	6602.19
3460.65	6635.33
3461.44	6746.03
3462.22	6665.96
3463.01	6702.95
3463.8	6606.79
3464.58	6634.7
3465.36	6636.77
3466.15	6681.25
3466.94	6483.76
3467.72	6622.11
3468.51	6686.2
3469.29	6679.96
3470.08	6552.17
3470.86	6521.63
3471.64	6619.67
3472.43	6672.68
3473.21	6605.58
3474	6552.25
3474.78	6534.28
3475.57	6504.98
3476.35	6601.58
3477.14	6589.06
3477.92	6477.31
3478.7	6606.11
3479.49	6610.22
3480.27	6642.95
3481.06	6578.52
3481.84	6579.32
3482.62	6617.36
3483.41	6580.71
3484.19	6530.22
3484.97	6617.94
3485.76	6557.97
3486.54	6549.83
3487.32	6609.59
3488.1	6632.3
3488.89	6425.62
3489.67	6530.73
3490.45	6606.58
3491.24	6584.71
3492.02	6584.62
3492.8	6548.81
3493.58	6634.04
3494.37	6608.89
3495.15	6573.27
3495.93	6554.24
3496.71	6563.06
3497.5	6458.06
3498.28	6490.47
3499.06	6615.76
3499.84	6632.01
3500.62	6633.87
3501.4	6470.64
3502.19	6554.05
3502.97	6487.43
3503.75	6615.49
3504.53	6469.99
3505.31	6505.54
3506.09	6402.96
3506.88	6493.24
3507.66	6414.04
3508.44	6418.5
3509.22	6453.53
3510	6496.7
3510.78	6469.9
3511.56	6497.96
3512.34	6501.01
3513.12	6405.55
3513.9	6408.48
3514.68	6420.41
3515.46	6413.26
3516.24	6331.99
3517.02	6447.97
3517.8	6369.54
3518.59	6383.6
3519.36	6485.43
3520.14	6378.25
3520.92	6458.8
3521.7	6346.51
3522.48	6448.92
3523.26	6396.74
3524.04	6426.57
3524.82	6398.3
3525.6	6509.3
3526.38	6441.64
3527.16	6404.69
3527.94	6453.09
3528.72	6370.34
3529.5	6367.37
3530.28	6369.28
3531.06	6363.54
3531.83	6344.52
3532.61	6426.95
3533.39	6468.69
3534.17	6393.06
3534.95	6409.51
3535.73	6360.44
3536.5	6324.36
3537.28	6325.54
3538.06	6285.9
3538.84	6438.29
3539.62	6375.11
3540.4	6327.24
3541.17	6293.39
3541.95	6309.91
3542.73	6315
3543.51	6278.63
3544.29	6237.29
3545.06	6270.45
3545.84	6318.27
3546.62	6388.02
3547.39	6364.92
3548.17	6169.42
3548.95	6341.27
3549.73	6312.8
3550.5	6262.03
3551.28	6154.2
3552.06	6228.27
3552.83	6215.68
3553.61	6184.19
3554.39	6269.13
3555.16	6232.88
3555.94	6267.49
3556.72	6265.68
3557.49	6246.42
3558.27	6265.93
3559.04	6228.25
3559.82	6331.99
3560.6	6238.68
3561.37	6132.32
3562.15	6293.94
3562.92	6224.31
3563.7	6266.83
3564.48	6272.7
3565.25	6207.09
3566.03	6191.32
3566.8	6197.5
3567.58	6283.43
3568.35	6149.11
3569.13	6287.71
3569.9	6255.4
3570.68	6330.12
3571.45	6256.08
3572.23	6300.84
3573	6300.81
3573.78	6203.56
3574.55	6261.76
3575.33	6208.55
3576.1	6125.68
3576.88	6237.83
3577.65	6240.31
3578.42	6156.34
3579.2	6193.9
3579.97	6145.23
3580.75	6088.64
3581.52	6158.61
3582.29	6181.35
3583.07	6123.03
3583.84	6089.48
3584.62	6125.36
3585.39	6052.55
3586.16	6107.81
3586.94	6099.78
3587.71	6045.59
3588.48	5992.81
3589.26	6097.23
3590.03	6109.35
3590.8	6029.87
3591.57	6071.54
3592.35	5999.72
3593.12	6014.6
3593.89	6073.02
3594.67	6037.97
3595.44	6121.1
3596.21	6012.07
3596.98	6039.23
3597.76	6092.28
3598.53	6011.63
3599.3	6146.37
3600.07	6082.88
3600.84	6007.87
3601.62	6018.35
3602.39	6080.44
3603.16	6127.98
3603.93	6089.25
3604.7	6183.76
3605.48	6068.82
3606.25	6136.07
3607.02	6074.54
3607.79	6082.38
3608.56	6026.59
3609.33	6132.33
3610.1	6122.86
3610.87	6037.65
3611.65	6122.93
3612.42	6043.18
3613.19	5983.46
3613.96	6071.68
3614.73	6171.66
3615.5	6089.29
3616.27	6003.29
3617.04	6107.75
3617.81	6126.17
3618.58	6057.71
3619.35	6048.25
3620.12	6111.88
3620.89	6000.73
3621.66	6019.76
3622.43	6000.83
3623.2	6085.07
3623.97	6013.76
3624.74	6006.21
3625.51	5979.46
3626.28	6060.67
3627.05	5944.72
3627.82	5957.71
3628.59	6015.65
3629.36	6002.83
3630.13	6004.78
3630.9	5861.42
3631.67	5925.86
3632.44	5921.28
3633.21	5900.27
3633.97	5877.18
3634.74	5900.42
3635.51	5992.41
3636.28	5853.59
3637.05	5996.61
3637.82	5869.29
3638.59	5908.08
3639.35	5903.08
3640.12	5930.57
3640.89	5872.19
3641.66	5904.17
3642.43	5909.33
3643.2	5947.92
3643.96	5936.48
3644.73	5848.86
3645.5	5953.48
3646.27	5910.1
3647.03	5904.68
3647.8	5955.34
3648.57	5933.03
3649.34	5917.63
3650.1	6046.97
3650.87	5982.24
3651.64	5896.18
3652.41	5958.26
3653.17	5954.68
3653.94	5896.71
3654.71	5943.86
3655.47	5885.05
3656.24	5921.79
3657.01	5963.54
3657.77	5790.44
3658.54	5884.37
3659.31	5861.23
3660.07	5857.82
3660.84	5848.86
3661.6	5849.85
3662.37	5888.44
3663.14	5848.09
3663.9	5878.12
3664.67	5818.07
3665.44	5765.36
3666.2	5783.55
3666.97	5843.95
3667.73	5767.26
3668.5	5781.87
3669.26	5765.82
3670.03	5743.82
3670.79	5802.14
3671.56	5759.7
3672.32	5830.17
3673.09	5742.34
3673.85	5750.77
3674.62	5726.69
3675.38	5695.59
3676.15	5756.23
3676.91	5741.74
3677.68	5740.41
3678.44	5713.67
3679.21	5739.55
3679.97	5810.48
3680.74	5783.71
3681.5	5710.27
3682.27	5721.1
3683.03	5754.36
3683.79	5692.95
3684.56	5778.79
3685.32	5775.62
3686.08	5757.74
3686.85	5689.63
3687.61	5754.11
3688.38	5702.14
3689.14	5748.3
3689.9	5804.17
3690.67	5799.59
3691.43	5626.55
3692.19	5747.43
3692.96	5784.68
3693.72	5644.65
3694.48	5767.01
3695.25	5682.45
3696.01	5657.6
3696.77	5705.35
3697.53	5670.49
3698.3	5682.9
3699.06	5769.37
3699.82	5646.77
3700.58	5682.78
3701.35	5621.33
3702.11	5690.28
3702.87	5694.23
3703.63	5592.48
3704.4	5689.63
3705.16	5607.37
3705.92	5673.42
3706.68	5677.25
3707.44	5595.33
3708.2	5661.66
3708.97	5552.64
3709.73	5688.96
3710.49	5541.25
3711.25	5636.73
3712.01	5703.79
3712.77	5554.02
3713.54	5632.81
3714.3	5616.33
3715.06	5562.51
3715.82	5531.53
3716.58	5603.52
3717.34	5575.86
3718.1	5649.28
3718.86	5726.19
3719.62	5618.36
3720.38	5511.33
3721.14	5715.28
3721.9	5681.55
3722.66	5644.43
3723.42	5619.13
3724.18	5714.48
3724.94	5659.75
3725.7	5627.22
3726.46	5626.62
3727.22	5591.33
3727.98	5565.04
3728.74	5649.81
3729.5	5587.4
3730.26	5528.18
3731.02	5535.5
3731.78	5557.15
3732.54	5531.36
3733.3	5524.41
3734.06	5444.07
3734.82	5493.82
3735.58	5504.51
3736.34	5506.2
3737.1	5449.21
3737.86	5524.74
3738.61	5554.6
3739.37	5485.44
3740.13	5568.49
3740.89	5410.43
3741.65	5452.54
3742.41	5462.3
3743.17	5459.44
3743.92	5460.6
3744.68	5481.65
3745.44	5400.67
3746.2	5527.47
3746.96	5401.64
3747.71	5467.29
3748.47	5494.56
3749.23	5554.19
3749.99	5410.61
3750.75	5444.31
3751.5	5476.78
3752.26	5464.83
3753.02	5353.13
3753.77	5500.71
3754.53	5453.51
3755.29	5453.67
3756.05	5453.38
3756.8	5530.32
3757.56	5507.5
3758.32	5498.09
3759.07	5446.81
3759.83	5425.51
3760.59	5491.24
3761.34	5508.07
3762.1	5538.59
3762.86	5472.28
3763.61	5497.37
3764.37	5506.37
3765.13	5509.02
3765.88	5582.48
3766.64	5531.68
3767.39	5540.93
3768.15	5513.08
3768.91	5559.08
3769.66	5525.95
3770.42	5455.97
3771.17	5487.77
3771.93	5489.02
3772.68	5529.19
3773.44	5472.97
3774.2	5493.73
3774.95	5495.7
3775.71	5362.2
3776.46	5430.94
3777.22	5448.63
3777.97	5448.22
3778.73	5404.75
3779.48	5453.56
