#Acq. time (s)=	10
#Accumulations=	2
#Range (cm-¹)=	71...3780
#Windows=	2
#Auto scanning=	Off
#Autofocus=	Off
#Macrospot=	Off
#AutoExposure=	Off
#Spike filter=	Multiple accum.
#Delay time (s)=	0
#Binning=	1
#Readout mode=	Signal
#DeNoise=	Off
#ICS correction=	Off
#Dark correction=	Off
#Inst. Process=	Off
#Detector temperature (°C)=	-75.13
#Instrument=	LabRAM HR Evol
#Detector=	Synapse
#Objective=	X50_VIS_LWD
#Grating=	600 (500nm)
#ND Filter=	100%
#Laser (nm)=	488 
#Hole=	49.98
#Range=	Visible
#StageXY=	Marzhauser
#StageZ=	Marzhauser
#X (µm)=	0
#Y (µm)=	0
#Z (µm)=	0
#Full time(s)=	59
#Project=	2021-4-13_Andrew_Fertilizer
#Sample=	
#Site=	
#Title=	_2021_04_13_15_29_00_Stone Wall_488 nm_600 (500nm)_X50_VIS_LWD_100%_
#Remark=	
#Date=	13.04.2021 15:29
#Acquired=	13.04.2021 15:29:22
#ICS:Correction=	13.04.2021 15:30:08
73.8841	2913.82
75.0266	2904.55
76.1676	2733.68
77.3099	2626.68
78.452	2569.14
79.594	2409.55
80.7358	2421.05
81.8775	2470.48
83.0179	2526.42
84.1593	2492.44
85.3007	2468.48
86.4419	2406.81
87.583	2455.9
88.7226	2430.04
89.8635	2454.08
91.0042	2375.32
92.1447	2370.12
93.2852	2382.94
94.4242	2243.35
95.5644	2324.37
96.7045	2321.18
97.8444	2330.05
98.983	2282.38
100.123	2267.8
101.262	2315.46
102.402	2297.51
103.541	2334.62
104.679	2251.47
105.818	2263.68
106.957	2234.2
108.096	2302.64
109.233	2287.94
110.372	2314.49
111.51	2277.8
112.648	2242.14
113.785	2281.63
114.923	2268.85
116.061	2264.4
117.198	2236.91
118.335	2221.38
119.473	2210.58
120.61	2303.74
121.746	2266.49
122.883	2199.88
124.02	2228.29
125.156	2358.87
126.293	2231.86
127.429	2310.92
128.564	2329.46
129.701	2315.46
130.837	2302.82
131.973	2306.1
133.108	2225.28
134.244	2325.26
135.38	2294.58
136.514	2212.34
137.649	2273.05
138.785	2297.86
139.919	2242.16
141.054	2320.7
142.189	2297.26
143.322	2316.29
144.457	2297.82
145.591	2291.43
146.725	2302.54
147.859	2279.49
148.992	2285.3
150.126	2306.21
151.26	2317.85
152.393	2324.8
153.527	2366.59
154.659	2297.27
155.793	2255.09
156.926	2303.04
158.058	2297.74
159.191	2384.93
160.323	2372.36
161.455	2311.37
162.588	2397.01
163.719	2361.91
164.852	2319.07
165.983	2297.87
167.115	2305.74
168.247	2312.64
169.378	2356.79
170.51	2333.63
171.64	2294.56
172.772	2404.44
173.902	2278.81
175.033	2405.5
176.165	2467.01
177.294	2359.03
178.425	2279.41
179.555	2362.96
180.686	2392.42
181.815	2389.97
182.945	2399.08
184.074	2355.01
185.205	2379.23
186.333	2282.3
187.463	2438.89
188.592	2498.42
189.722	2325.73
190.85	2347.57
191.979	2404.63
193.107	2397.28
194.237	2465.1
195.364	2434.17
196.493	2415.21
197.621	2408.62
198.749	2445.55
199.877	2392.95
201.005	2358.24
202.132	2437.33
203.26	2452.09
204.387	2387.59
205.515	2373.79
206.642	2413.86
207.769	2417.47
208.896	2421.21
210.023	2414.33
211.149	2456.64
212.276	2463.24
213.402	2489.08
214.528	2417.79
215.655	2435.31
216.78	2416.24
217.907	2495.69
219.032	2391.13
220.158	2499.41
221.283	2464.61
222.408	2455.05
223.534	2387.81
224.658	2450.23
225.784	2474.94
226.908	2479.27
228.032	2445.9
229.158	2430.98
230.282	2547.77
231.407	2470.02
232.53	2453.91
233.654	2481.82
234.779	2610.01
235.902	2499.14
237.026	2556.39
238.149	2574.74
239.272	2497.84
240.396	2450.54
241.519	2536.82
242.642	2489.81
243.765	2514.05
244.888	2519.08
246.01	2502.8
247.133	2474.27
248.255	2521.16
249.377	2466.35
250.5	2606.97
251.621	2483.44
252.743	2592.95
253.865	2518.65
254.987	2535.1
256.108	2555.09
257.23	2587.83
258.351	2595.93
259.471	2469.55
260.593	2571.62
261.714	2534.11
262.834	2611.5
263.955	2577.22
265.075	2608.58
266.195	2579.32
267.315	2559.12
268.436	2586.23
269.556	2651.71
270.675	2592.29
271.796	2685.87
272.915	2570.04
274.034	2610.08
275.153	2580.65
276.273	2633.36
277.392	2646.21
278.51	2615.37
279.629	2659.86
280.748	2653.24
281.867	2607.28
282.985	2629.44
284.103	2636.82
285.222	2615.7
286.339	2592.41
287.457	2640.75
288.574	2632.32
289.692	2698.34
290.81	2621.21
291.927	2725.32
293.044	2643.48
294.161	2669.33
295.279	2620.49
296.396	2701.9
297.512	2673.21
298.629	2749.92
299.745	2700.93
300.862	2682.93
301.978	2712.2
303.094	2697.79
304.21	2774.06
305.325	2734.73
306.441	2715.14
307.557	2755.82
308.673	2775.37
309.788	2763.55
310.903	2732.99
312.018	2754.41
313.133	2843.62
314.247	2821.37
315.363	2791.16
316.477	2806.75
317.592	2833.75
318.706	2760.93
319.82	2844.92
320.934	2831.17
322.047	2827.88
323.162	2796.84
324.276	2850.98
325.389	2733.72
326.502	2778.21
327.616	2837.64
328.729	2884.51
329.842	2915.94
330.954	2867.08
332.067	2859.98
333.18	2967.4
334.293	2930.73
335.405	2792.01
336.518	2950.17
337.63	2888.06
338.742	2905.01
339.853	2904.12
340.965	2902.78
342.077	2858.2
343.188	2851.54
344.299	2942.81
345.411	2975.03
346.522	2965.93
347.633	2946.89
348.743	3013.67
349.854	2986.66
350.965	3029.08
352.075	3031.92
353.185	2987.74
354.296	2985.78
355.407	2973.29
356.517	2999
357.627	2931.32
358.737	3076.12
359.846	3075.04
360.956	3054.58
362.065	3067.52
363.174	3061.32
364.283	3022.63
365.392	2945.18
366.501	2996.66
367.61	3048.93
368.717	3047.74
369.826	3093.3
370.934	3087.04
372.042	3157.54
373.151	3090.21
374.259	3046.61
375.366	3037.74
376.474	3165.15
377.582	3073.18
378.689	3037.67
379.797	3093.16
380.904	3146.02
382.011	3061.3
383.118	3183.81
384.225	3163.22
385.332	3145.17
386.439	3037.31
387.545	3110.19
388.652	3163.97
389.757	3155.51
390.863	3181.71
391.969	3089.92
393.075	3149.86
394.181	3173.25
395.286	3199.33
396.392	3183.26
397.497	3248.37
398.603	3227.13
399.708	3275.41
400.812	3188.84
401.917	3270.47
403.022	3203.65
404.126	3281.11
405.231	3205.46
406.335	3266.48
407.44	3294.4
408.544	3245.86
409.647	3288.39
410.751	3316.12
411.855	3314.91
412.958	3332.17
414.062	3341.18
415.166	3346.29
416.268	3366.84
417.371	3285.38
418.474	3316.49
419.577	3368.51
420.68	3287.21
421.783	3402.77
422.884	3358.97
423.987	3345.65
425.089	3333.98
426.192	3284.17
427.294	3369.28
428.395	3380.57
429.496	3316.09
430.598	3316.84
431.7	3440.06
432.802	3355.27
433.902	3423.21
435.003	3360.76
436.104	3358.68
437.205	3431.76
438.305	3412.79
439.406	3410.2
440.507	3461.37
441.607	3414.4
442.707	3442.15
443.807	3481.98
444.907	3391.64
446.007	3459.69
447.106	3363.41
448.206	3498.58
449.306	3449.06
450.405	3434.53
451.504	3512.75
452.603	3613.82
453.702	3479.12
454.8	3481.45
455.899	3438.96
456.998	3477.56
458.097	3555.05
459.194	3579.53
460.293	3526.19
461.391	3547.49
462.488	3493.42
463.587	3429.54
464.685	3517.55
465.781	3535.91
466.879	3558.41
467.977	3452.12
469.073	3515.33
470.171	3538.36
471.268	3622.28
472.364	3622.12
473.461	3623.68
474.558	3625.09
475.654	3501.28
476.751	3628.32
477.847	3697.8
478.943	3716.01
480.039	3699.45
481.134	3666.05
482.23	3744.66
483.326	3652.66
484.421	3714.88
485.517	3632.68
486.612	3674.2
487.707	3690.14
488.802	3756.16
489.896	3735.52
490.991	3823.87
492.086	3690.51
493.18	3701.49
494.275	3732.79
495.369	3670.23
496.463	3774.58
497.556	3662.99
498.651	3745.89
499.745	3761.95
500.838	3725.45
501.932	3752.31
503.024	3655.05
504.118	3804.34
505.211	3788.66
506.304	3860.31
507.398	3825.39
508.49	3758.03
509.583	3788.53
510.675	3808.19
511.767	3858.61
512.859	3814.94
513.952	3803.84
515.043	3844.81
516.135	3762.96
517.227	3823.31
518.319	3828.99
519.41	3850.95
520.502	3838.62
521.592	3851.64
522.684	3891.14
523.774	3892.66
524.866	3847.65
525.956	3850.06
527.047	3892.03
528.137	3857.46
529.228	3848
530.318	3867.21
531.409	3926.75
532.498	3975.06
533.589	3929.31
534.678	3913.62
535.767	3876.84
536.857	3929.54
537.946	3937.38
539.036	3989.96
540.124	3855.9
541.214	3956.3
542.302	4020.4
543.392	4046.91
544.48	3922.68
545.568	3989.98
546.657	3947.74
547.745	3948.8
548.834	4066.21
549.921	4002.12
551.009	4005.72
552.097	4016.39
553.184	4007.53
554.273	3993.53
555.36	4063
556.446	3942.25
557.534	4139.63
558.621	4062.52
559.709	4106.24
560.795	4111.82
561.881	4143.06
562.968	4161.77
564.054	4103.55
565.14	4093.29
566.227	4101.61
567.313	4197.2
568.398	4177.26
569.485	4159.17
570.57	4080.66
571.655	4118.63
572.742	4169.89
573.827	4124.29
574.911	4196.51
575.997	4101.39
577.082	4264.77
578.166	4208.62
579.252	4159.84
580.336	4243.54
581.42	4262.61
582.505	4213.54
583.589	4179.11
584.673	4287.42
585.758	4162.96
586.841	4246.76
587.925	4248.71
589.008	4218.39
590.092	4366.2
591.175	4177.29
592.258	4323.5
593.341	4303.38
594.425	4241.69
595.508	4317.24
596.59	4277.6
597.674	4264.58
598.756	4461.64
599.838	4214.38
600.92	4292.07
602.002	4334.51
603.085	4256.51
604.166	4419.92
605.248	4412.99
606.329	4391.83
607.412	4235.3
608.493	4240.41
609.574	4364.78
610.655	4361.52
611.736	4409.53
612.817	4381.4
613.898	4449.79
614.978	4415.17
616.059	4433.31
617.139	4384.8
618.22	4462.55
619.3	4331.91
620.38	4327.33
621.46	4445.62
622.539	4385.84
623.62	4409.67
624.7	4406.59
625.779	4462.58
626.858	4462.56
627.937	4455.61
629.016	4513.57
630.095	4435.09
631.175	4420.77
632.253	4473
633.332	4416.93
634.41	4515.42
635.488	4524.84
636.566	4432.62
637.644	4502.17
638.722	4518.12
639.801	4496.23
640.879	4605.24
641.956	4566.51
643.034	4444.63
644.111	4482.04
645.188	4459.29
646.265	4508.21
647.342	4483.48
648.419	4571.45
649.496	4579.26
650.573	4491.16
651.65	4570.68
652.726	4528.23
653.802	4555.68
654.879	4502.02
655.955	4528.82
657.03	4569.05
658.106	4591.05
659.182	4636.24
660.257	4629.45
661.333	4701.88
662.408	4554.68
663.483	4633.33
664.558	4684.28
665.633	4586.84
666.708	4602.95
667.783	4685.86
668.857	4810.7
669.932	4640.37
671.006	4640.75
672.081	4671.15
673.155	4714.41
674.229	4699.61
675.303	4699
676.376	4743.94
677.45	4729.53
678.524	4701.16
679.597	4680.26
680.67	4772.6
681.744	4662.61
682.817	4754.21
683.89	4731.97
684.962	4821.58
686.035	4790.73
687.108	4789.8
688.18	4816.13
689.253	4726.72
690.325	4863.06
691.397	4816.26
692.469	4744.03
693.541	4858.08
694.613	4760.06
695.683	4884.57
696.755	4826.47
697.826	4828.72
698.898	4876.87
699.969	4861.19
701.04	4906.67
702.111	4871.23
703.182	4796.31
704.253	4802.39
705.323	4955.76
706.394	4948.22
707.463	4829.4
708.533	4953.34
709.604	4855.68
710.674	4836.45
711.744	4872.44
712.813	4936.06
713.883	4916.25
714.952	4933.76
716.021	4905.17
717.09	4808.67
718.16	4834.54
719.229	4932.34
720.298	4972.44
721.367	4942.48
722.434	4891.14
723.503	4940.99
724.572	5005.04
725.64	4887.65
726.708	4841.13
727.777	4920.41
728.844	4981.46
729.911	5006.1
730.979	4955.82
732.047	4998.25
733.115	4934.34
734.181	5020.6
735.249	4939.29
736.316	5025.36
737.383	4973.76
738.449	4941.15
739.516	5023.04
740.583	5030.02
741.649	5045.09
742.716	5006.18
743.781	5014.02
744.848	4954.24
745.914	5039.81
746.98	5067.87
748.045	5022.46
749.111	5036.82
750.177	5054.76
751.242	5045.78
752.307	5040.24
753.372	4981.24
754.438	5090.99
755.502	5011.04
756.567	5140.03
757.632	5081.44
758.696	5128.52
759.76	5026.15
760.825	5203.27
761.889	5087.69
762.952	5142.73
764.017	5123.87
765.081	5219.12
766.144	5197.49
767.208	5266.76
768.272	5202.73
769.334	5113.31
770.398	5144.65
771.461	5171.81
772.523	5168.13
773.587	5195.58
774.65	5210.85
775.712	5237.09
776.775	5207.94
777.838	5134.68
778.899	5127.41
779.962	5161.39
781.024	5199.86
782.085	5148.42
783.148	5245.08
784.208	5170.35
785.271	5187.86
786.332	5199.75
787.393	5204.62
788.455	5196.37
789.516	5202.45
790.576	5270.15
791.638	5205.07
792.698	5197.83
793.759	5434.82
794.819	5096.77
795.88	5231.47
796.94	5244.23
798	5289.53
799.06	5329.71
800.12	5270.33
801.18	5111.73
802.239	5277.01
803.299	5324.61
804.359	5258.23
805.418	5295.25
806.477	5264.51
807.536	5278.71
808.595	5308.67
809.653	5273.02
810.713	5285.1
811.771	5240.69
812.83	5106.26
813.887	5277
814.946	5379.38
816.004	5285.24
817.062	5328.79
818.12	5309.78
819.178	5181.4
820.235	5315.31
821.293	5275.69
822.35	5347.53
823.408	5453.3
824.465	5311.69
825.522	5315.12
826.579	5348.33
827.636	5371.88
828.692	5346.54
829.75	5372.72
830.805	5395.72
831.862	5348.97
832.918	5296.77
833.974	5409.27
835.03	5434.51
836.086	5398.65
837.142	5346.51
838.197	5390.08
839.253	5350.09
840.308	5382.5
841.363	5476.39
842.419	5394.17
843.474	5432.32
844.529	5404.5
845.584	5326.89
846.639	5424.29
847.693	5396.03
848.747	5458.03
849.802	5465.29
850.856	5371.98
851.91	5464.21
852.964	5475.71
854.018	5425.41
855.072	5475.97
856.126	5437.6
857.179	5549.06
858.233	5461.03
859.286	5455.67
860.338	5467.19
861.392	5470.71
862.445	5461.72
863.497	5462.59
864.551	5514.13
865.603	5392.82
866.655	5467.13
867.708	5348.92
868.76	5469.17
869.812	5408.49
870.865	5508.32
871.916	5433.94
872.967	5406.54
874.02	5424.81
875.071	5649.89
876.122	5416.34
877.174	5610.88
878.225	5516.36
879.276	5457.19
880.326	5466.96
881.378	5554.89
882.429	5556.73
883.479	5530.65
884.529	5539.79
885.58	5430.72
886.63	5541.57
887.68	5558.1
888.731	5500.82
889.781	5575.86
890.83	5524.44
891.879	5557.71
892.929	5600.02
893.979	5645.39
895.028	5615.07
896.077	5627.39
897.126	5605.04
898.176	5592.58
899.224	5499.74
900.273	5602.78
901.321	5528.41
902.369	5574.96
903.419	5641.6
904.467	5664.16
905.515	5499.49
906.562	5598.82
907.61	5615.67
908.659	5601.55
909.706	5558.83
910.754	5550.91
911.801	5605.8
912.848	5694.52
913.895	5677.97
914.943	5633.29
915.99	5527.01
917.037	5681.55
918.083	5642.28
919.13	5579.15
920.176	5597.45
921.222	5656.75
922.27	5675.46
923.316	5743.47
924.362	5613.81
925.407	5637.34
926.453	5717.54
927.499	5606.06
928.544	5659.49
929.589	5629.6
930.635	5560.66
931.681	5545.65
932.726	5722.78
933.771	5630.98
934.816	5725.17
935.86	5587.12
936.905	5619.49
937.949	5649.24
938.994	5528.84
940.038	5684.71
941.082	5633.7
942.126	5657.36
943.17	5675.69
944.214	5755.87
945.257	5671.37
946.301	5629.24
947.346	5766.92
948.389	5635.89
949.432	5669.35
950.475	5599.92
951.518	5702.4
952.561	5684.66
953.604	5718.66
954.647	5638.77
955.689	5643.17
956.732	5699.9
957.774	5779.81
958.816	5652.12
959.858	5692.36
960.9	5681.75
961.942	5805.3
962.983	5723.61
964.026	5760.98
965.066	5821.99
966.109	5806.08
967.149	5856.23
968.191	5693.09
969.231	5644.31
970.273	5743.82
971.313	5685.35
972.355	5704.78
973.394	5723.15
974.436	5736.75
975.475	5744.38
976.517	5631.43
977.556	5806.81
978.595	5721.7
979.636	5867.57
980.675	5818.3
981.716	5808.93
982.754	5731.35
983.795	5760.08
984.833	5859.49
985.874	5702.97
986.912	5856.25
987.952	5736.13
988.99	5882.14
990.028	5970.7
991.068	5769.01
992.105	5924.18
993.145	5803.53
994.182	5802.33
995.222	6000.29
996.259	5881.54
997.296	5883.88
998.335	5910.88
999.372	5882.73
1000.41	5899.61
1001.45	5917.76
1002.49	5908.13
1003.52	5915.41
1004.56	5947.3
1005.6	5978.42
1006.63	5920.68
1007.67	6025.03
1008.71	5859.95
1009.74	5948.96
1010.78	5831.56
1011.82	5864.27
1012.85	5949.56
1013.89	5883.51
1014.92	5873.55
1015.96	5823.28
1017	5839.79
1018.03	5847.67
1019.07	5815.46
1020.1	5917.42
1021.14	5877.46
1022.17	5814.79
1023.21	5920.14
1024.24	5836.98
1025.28	5839.4
1026.31	5805.09
1027.35	5880.15
1028.38	5857.14
1029.42	5929.17
1030.45	5857.85
1031.48	5949.76
1032.52	5811.71
1033.55	5868.1
1034.59	5934.62
1035.62	5934.31
1036.65	5864.07
1037.69	5845.77
1038.72	5896.44
1039.75	5830.47
1040.79	5909.87
1041.82	5917.8
1042.85	5933.58
1043.89	5960.27
1044.92	5872.4
1045.95	5975.04
1046.98	5954.57
1048.02	5979.89
1049.05	5789.66
1050.08	5906.15
1051.11	5970.26
1052.14	5920.6
1053.18	6003.1
1054.21	5860.21
1055.24	5872.6
1056.27	5818.52
1057.3	5862.73
1058.33	5824.81
1059.36	5892.8
1060.4	5949.13
1061.43	5840.79
1062.46	5904.58
1063.49	5825.02
1064.52	5934.52
1065.55	5913.33
1066.58	5891.87
1067.61	5857.16
1068.64	5902.81
1069.67	5905.28
1070.7	5958.29
1071.73	5852.17
1072.76	5934.92
1073.79	5886.67
1074.82	5933.64
1075.85	5841.56
1076.87	5857.77
1077.9	5951
1078.93	5869.71
1079.96	5888.76
1080.99	5875.71
1082.02	5921.45
1083.05	5924.85
1084.08	5834.69
1085.11	5838.76
1086.13	5922.04
1087.16	5832.76
1088.19	5781.43
1089.22	5892.62
1090.24	5888.76
1091.27	5834.53
1092.3	5763.87
1093.33	5831.52
1094.35	5894.53
1095.38	5850.74
1096.41	5944.81
1097.44	5843.95
1098.46	5936.07
1099.49	5924.64
1100.51	5965.58
1101.54	5861.33
1102.57	5855.27
1103.59	5915.94
1104.62	5969.26
1105.64	6070.29
1106.67	5730.5
1107.7	5837.56
1108.72	5951.29
1109.75	5953.76
1110.77	5822.26
1111.8	6015.95
1112.82	5897.36
1113.85	5932.71
1114.87	5806.91
1115.9	5861.79
1116.92	5972.19
1117.95	5888.19
1118.97	5824.2
1120	5786.24
1121.02	5869.46
1122.05	5857.93
1123.07	5930.62
1124.09	5825.33
1125.12	5942.47
1126.14	5854.21
1127.17	5976.36
1128.19	5882.04
1129.21	5978.43
1130.23	5914.96
1131.26	5946.43
1132.28	5958.47
1133.3	5904.85
1134.33	5916.24
1135.35	5913.73
1136.37	6040.83
1137.39	5928.62
1138.42	5982.26
1139.44	6029.15
1140.46	5842.25
1141.48	5979.52
1142.51	5851.96
1143.53	5822.21
1144.55	5795.41
1145.57	5952.59
1146.59	5884.31
1147.61	5866.06
1148.63	5925.27
1149.66	5984.25
1150.68	5968.92
1151.7	5910.96
1152.72	5811.87
1153.74	5874.81
1154.76	6005.05
1155.78	5939.22
1156.8	5915.26
1157.82	6019.54
1158.84	5946.92
1159.86	5856.72
1160.88	5929.7
1161.9	5805.56
1162.92	5849.1
1163.94	5956.11
1164.96	5915.06
1165.98	5966.91
1167	5918.89
1168.02	5870.29
1169.04	5913.63
1170.05	5945.95
1171.07	5908.32
1172.09	5804.13
1173.11	5914.82
1174.13	6025
1175.15	5983.11
1176.17	5912.59
1177.18	6074.42
1178.2	5968.11
1179.22	5864.51
1180.24	5919.64
1181.25	6006.61
1182.27	5907.28
1183.29	5998.72
1184.31	5936.9
1185.33	5950.82
1186.34	5993.5
1187.36	5948.64
1188.38	6003.08
1189.39	6030.73
1190.41	5874.63
1191.43	5984.89
1192.44	5885.1
1193.46	5934.83
1194.47	5949.36
1195.49	5983.36
1196.51	5993.4
1197.52	6039.1
1198.54	5891.3
1199.55	6001.46
1200.57	5980.61
1201.59	5991.15
1202.6	5912.09
1203.62	5905.63
1204.63	6011.09
1205.65	5849.01
1206.66	5902.78
1207.68	5914.57
1208.69	5845.02
1209.7	5985.02
1210.72	5928.01
1211.73	5805.24
1212.75	6054.09
1213.76	5929.67
1214.78	6006.05
1215.79	5896.94
1216.8	5799.99
1217.82	5966.84
1218.83	5971.25
1219.84	5843.73
1220.86	5946.82
1221.87	5917.61
1222.88	5972.51
1223.9	5953.14
1224.91	5873.1
1225.92	5895.9
1226.93	5922.91
1227.95	5983.04
1228.96	5872.4
1229.97	5963.56
1230.98	5936.3
1232	5945.47
1233.01	5746.5
1234.02	5808.57
1235.03	5836.22
1236.04	5842.11
1237.06	5937.5
1238.07	5847.92
1239.08	5932.45
1240.09	5929.14
1241.1	5868.78
1242.11	5859.03
1243.12	5882.39
1244.13	5853.93
1245.14	5906.06
1246.15	5882.86
1247.16	5945.67
1248.17	5902.8
1249.18	5986.44
1250.19	5939.49
1251.21	5870.63
1252.22	5948.04
1253.22	5854.74
1254.23	5835.35
1255.24	5867.32
1256.25	5988
1257.26	5836.26
1258.27	5912.89
1259.28	5882.78
1260.29	5841.01
1261.3	5879.39
1262.31	5912.46
1263.32	5811.55
1264.32	5830.92
1265.33	5934.89
1266.34	5953.44
1267.35	5961.68
1268.36	5813.55
1269.36	5887.68
1270.37	5784.39
1271.38	5826.2
1272.39	5890.57
1273.4	5892.34
1274.4	5845.26
1275.41	5938.38
1276.42	5885.21
1277.42	5790.2
1278.43	5949.58
1279.44	5866.31
1280.45	5889.5
1281.45	5864.7
1282.46	5932.5
1283.47	5891.36
1284.47	5746.45
1285.48	5846.94
1286.48	5890.7
1287.49	5831.01
1288.5	5796.46
1289.5	5885.73
1290.51	5934.01
1291.51	5792.77
1292.52	5747.72
1293.52	5811.45
1294.53	5959.44
1295.53	5881.88
1296.54	5802.91
1297.55	5867.3
1298.55	5919.88
1299.55	5797.43
1300.56	5810.43
1301.56	5824.99
1302.57	5813.09
1303.57	5822.11
1304.58	5892.85
1305.58	5893.09
1306.58	5812.36
1307.59	5747.08
1308.59	5844.13
1309.6	5839.97
1310.6	5881.7
1311.6	5837.77
1312.6	5831.43
1313.61	5819.87
1314.61	5877.81
1315.62	5885.31
1316.62	5952.79
1317.62	5808.64
1318.62	5902.97
1319.63	5768.1
1320.63	5789
1321.63	5969.5
1322.63	5879.37
1323.63	5774.27
1324.64	5893.74
1325.64	5700.01
1326.64	5921.57
1327.64	5860.46
1328.64	5815.35
1329.64	5908.08
1330.64	5815.75
1331.65	5818.36
1332.65	5878.3
1333.65	5840.65
1334.65	5839.39
1335.65	5925.52
1336.65	5858.83
1337.65	5770.54
1338.65	5847.71
1339.65	5877.01
1340.65	5869.79
1341.65	5894.08
1342.65	5798.56
1343.65	5917.36
1344.65	5897.6
1345.65	5899.2
1346.65	5766.82
1347.65	5860.25
1348.65	5736.27
1349.65	5777.13
1350.65	5772.76
1351.65	5830.29
1352.65	5788.6
1353.65	5863.93
1354.64	5835.72
1355.64	5668.84
1356.64	5824.34
1357.64	5790.76
1358.64	5909.92
1359.64	5874.45
1360.63	5823.03
1361.63	5807.43
1362.63	5807.41
1363.63	5876.7
1364.63	5805.42
1365.62	5884.17
1366.62	5774.78
1367.62	5772.14
1368.61	5785.59
1369.61	5719.64
1370.61	5796.71
1371.6	5764.85
1372.6	5726.65
1373.6	5763.92
1374.6	5782.6
1375.59	5836.1
1376.59	5752.9
1377.58	5935.79
1378.58	5783.29
1379.58	5756.48
1380.57	5707.97
1381.57	5748.2
1382.56	5682.17
1383.56	5767.71
1384.55	5711.25
1385.55	5806.02
1386.55	5814.43
1387.54	5881.77
1388.53	5752.19
1389.53	5765.4
1390.52	5780.45
1391.52	5701.55
1392.51	5781.5
1393.51	5772.85
1394.5	5756.34
1395.5	5777.57
1396.49	5742
1397.49	5766.5
1398.48	5840.43
1399.47	5763.6
1400.47	5751.58
1401.46	5704.04
1402.45	5734.14
1403.45	5773.86
1404.44	5782.74
1405.43	5831.8
1406.43	5793.25
1407.42	5777.1
1408.41	5705.49
1409.4	5781.45
1410.4	5814.35
1411.39	5794.09
1412.38	5719.83
1413.38	5744.84
1414.37	5785.52
1415.36	5834.94
1416.35	5874.7
1417.34	5783.87
1418.33	5829.9
1419.33	5803.09
1420.32	5780.27
1421.31	5690.75
1422.3	5786.83
1423.29	5784.32
1424.28	5838.08
1425.27	5801.17
1426.26	5698.86
1427.26	5835.92
1428.24	5821.24
1429.24	5762.13
1430.23	5777.58
1431.22	5822.36
1432.21	5881.63
1433.2	5782.37
1434.19	5783.26
1435.18	5769.91
1436.17	5768.64
1437.16	5662.01
1438.15	5779.9
1439.14	5782.28
1440.13	5756.02
1441.12	5816.3
1442.1	5813.21
1443.09	5799.95
1444.08	5731.59
1445.07	5842.62
1446.06	5785.07
1447.05	5738.26
1448.04	5691.49
1449.03	5807.34
1450.01	5793.94
1451	5670.44
1451.99	5794.77
1452.98	5700.61
1453.97	5801.43
1454.95	5798.44
1455.94	5758.2
1456.93	5763.96
1457.92	5775.38
1458.9	5861.59
1459.89	5711.14
1460.88	5779.55
1461.87	5701.49
1462.85	5880.15
1463.84	5692.42
1464.82	5747.85
1465.81	5781.92
1466.8	5847.81
1467.79	5788.27
1468.77	5737.85
1469.76	5729.65
1470.74	5739.85
1471.73	5820.31
1472.71	5696.5
1473.7	5783.18
1474.69	5620.12
1475.67	5757.09
1476.66	5751.17
1477.64	5736.18
1478.63	5797.07
1479.61	5836.02
1480.6	5726.73
1481.58	5750.02
1482.57	5692.67
1483.55	5687.95
1484.54	5717
1485.52	5679.38
1486.51	5699.09
1487.49	5743.5
1488.47	5706.81
1489.46	5753.25
1490.44	5722.92
1491.43	5776.88
1492.41	5673.09
1493.39	5772.12
1494.38	5734.34
1495.36	5670.46
1496.34	5672.68
1497.33	5684.41
1498.31	5580.66
1499.29	5723.38
1500.28	5668.11
1501.26	5681.52
1502.24	5684.42
1503.22	5621.19
1504.21	5551.6
1505.19	5707.77
1506.17	5591.57
1507.15	5682.58
1508.13	5626.46
1509.12	5706.09
1510.1	5734.55
1511.08	5610.71
1512.06	5611.22
1513.04	5650.49
1514.02	5606.07
1515.01	5674.97
1515.99	5713.24
1516.97	5688.29
1517.95	5631.39
1518.93	5717.62
1519.91	5565.5
1520.89	5635.78
1521.87	5661.92
1522.85	5710.81
1523.83	5645.99
1524.81	5615.58
1525.79	5678.38
1526.77	5689.43
1527.75	5684.22
1528.73	5669.11
1529.71	5735.09
1530.69	5755.59
1531.67	5619.33
1532.65	5701.25
1533.63	5683.87
1534.61	5758.28
1535.59	5576.65
1536.57	5623.56
1537.55	5646.57
1538.52	5684.61
1539.5	5585.38
1540.48	5737.4
1541.46	5716.94
1542.44	5631.94
1543.42	5699.83
1544.39	5659.79
1545.37	5704.85
1546.35	5501.92
1547.33	5735.68
1548.31	5604.07
1549.28	5641.27
1550.26	5583.17
1551.24	5591.24
1552.22	5717.54
1553.19	5681.49
1554.17	5654.57
1555.15	5728.84
1556.12	5773.81
1557.1	5599.7
1558.08	5624.82
1559.05	5575.47
1560.03	5602.36
1561.01	5730.05
1561.98	5579.86
1562.96	5749.5
1563.93	5626.08
1564.91	5613.61
1565.89	5651.87
1566.86	5652.21
1567.84	5619.39
1568.81	5546.64
1569.79	5483.91
1570.76	5624.5
1571.74	5646.44
1572.71	5653.52
1573.69	5577.79
1574.66	5650.32
1575.64	5681.53
1576.61	5462.81
1577.59	5592.91
1578.56	5561.98
1579.54	5638.72
1580.51	5530.6
1581.48	5586.87
1582.46	5502.69
1583.43	5653.87
1584.41	5579.52
1585.38	5624.17
1586.35	5545.74
1587.33	5604.17
1588.3	5546.56
1589.27	5583.15
1590.25	5650.96
1591.22	5582.28
1592.19	5488.01
1593.17	5507.07
1594.14	5577.58
1595.11	5635.29
1596.08	5677.4
1597.06	5576.67
1598.03	5650.41
1599	5554.63
1599.97	5508.93
1600.94	5661.12
1601.92	5518.41
1602.89	5590.03
1603.86	5618.11
1604.83	5541.07
1605.8	5565.23
1606.77	5591.13
1607.75	5607.01
1608.72	5584.98
1609.69	5554.22
1610.66	5578.77
1611.63	5602.02
1612.6	5582.15
1613.57	5538.5
1614.54	5558.33
1615.51	5517.04
1616.48	5508.39
1617.45	5460.09
1618.42	5486.17
1619.39	5569.38
1620.36	5586.97
1621.33	5551.92
1622.3	5498.38
1623.27	5475.4
1624.24	5557.48
1625.21	5503.47
1626.18	5544.28
1627.15	5506.27
1628.12	5486.93
1629.09	5514.52
1630.05	5477.6
1631.02	5528.7
1631.99	5456.19
1632.96	5421.04
1633.93	5606.95
1634.9	5537.86
1635.87	5524.78
1636.83	5587.7
1637.8	5358.64
1638.77	5475.09
1639.74	5516.36
1640.71	5579.26
1641.67	5504.63
1642.64	5468.1
1643.61	5614.24
1644.58	5684.2
1645.54	5471.76
1646.51	5529.96
1647.48	5575.26
1648.44	5442.03
1649.41	5494.28
1650.38	5477.67
1651.34	5404.56
1652.31	5500.04
1653.28	5509.91
1654.24	5452.89
1655.21	5456.92
1656.17	5563.04
1657.14	5532.38
1658.11	5439.73
1659.07	5552.17
1660.04	5505.31
1661	5533.1
1661.97	5510.51
1662.94	5596.23
1663.9	5559.15
1664.87	5518.69
1665.83	5472.54
1666.79	5491.33
1667.76	5473.52
1668.72	5506.61
1669.69	5527.69
1670.65	5476.6
1671.62	5535.57
1672.58	5567.03
1673.55	5433.04
1674.51	5459.55
1675.47	5480.98
1676.44	5583.2
1677.4	5525.64
1678.36	5496.22
1679.33	5493.55
1680.29	5437.85
1681.26	5469.08
1682.22	5374.53
1683.18	5477.92
1684.14	5387.96
1685.11	5358.28
1686.07	5350.99
1687.03	5467.33
1688	5402.65
1688.96	5410.93
1689.92	5410.9
1690.88	5388.47
1691.85	5393.19
1692.81	5491.67
1693.77	5482.09
1694.73	5315.55
1695.69	5310.73
1696.65	5357.82
1697.62	5465.04
1698.58	5393.83
1699.54	5428.11
1700.5	5494.89
1701.46	5395.87
1702.42	5393.17
1703.38	5318.09
1704.35	5399.73
1705.31	5424.93
1706.27	5365.23
1707.23	5250.72
1708.19	5364.03
1709.15	5432.1
1710.11	5342.34
1711.07	5291.9
1712.03	5427.63
1712.99	5304.02
1713.95	5374.37
1714.91	5443.18
1715.87	5432.81
1716.83	5339.88
1717.79	5411.47
1718.75	5322.72
1719.7	5313.87
1720.66	5398.21
1721.62	5364.23
1722.58	5436.52
1723.54	5363.14
1724.5	5411.66
1725.46	5402.83
1726.42	5281.11
1727.38	5385.51
1728.33	5276.92
1729.29	5351.13
1730.25	5415.4
1731.21	5392.11
1732.17	5338.11
1733.12	5402.37
1734.08	5363.99
1735.04	5367.62
1736	5377.09
1736.95	5311.59
1737.91	5373.55
1738.87	5351.32
1739.82	5239.84
1740.78	5316.37
1741.74	5491.38
1742.7	5373.94
1743.65	5368.46
1744.61	5255.1
1745.57	5213.12
1746.52	5255.4
1747.48	5350.35
1748.43	5236.84
1749.39	5372.19
1750.35	5336.55
1751.3	5385.37
1752.26	5321.05
1753.22	5292.38
1754.17	5379.33
1755.12	5244.87
1756.08	5226.5
1757.04	5283.13
1757.99	5197.37
1758.95	5300.63
1759.9	5274.47
1760.86	5363.63
1761.81	5284.07
1762.77	5224.2
1763.72	5414.79
1764.67	5155.59
1765.63	5327.05
1766.58	5275.04
1767.54	5232.68
1768.49	5248.28
1769.45	5215.28
1770.4	5305.19
1771.35	5345.86
1772.31	5357.99
1773.26	5288.21
1774.21	5357.17
1775.17	5313.72
1776.12	5239.77
1777.07	5171.51
1778.03	5330.25
1778.98	5279.74
1779.93	5207.75
1780.88	5265.35
1781.84	5203.69
1782.79	5304.23
1783.74	5421.43
1784.69	5286.37
1785.64	5319.08
1786.6	5275.45
1787.55	5356.71
1788.5	5354.06
1789.45	5240.41
1790.4	5237.86
1791.36	5309.54
1792.31	5335.17
1793.26	5183.89
1794.21	5403
1795.16	5268.18
1796.11	5300.51
1797.06	5324.2
1798.01	5349.25
1798.97	5196.08
1799.92	5280.99
1800.87	5304.05
1801.82	5272.16
1802.77	5318.38
1803.72	5159.46
1804.67	5301.74
1805.62	5255.27
1806.57	5213.1
1807.52	5323.6
1808.47	5271.16
1809.42	5308.73
1810.37	5117.55
1811.32	5168.8
1812.27	5177.27
1813.21	5292.65
1814.16	5238.49
1815.11	5250.19
1816.06	5257.53
1817.01	5283.94
1817.96	5239.12
1818.91	5291.59
1819.86	5277.14
1820.8	5200.78
1821.75	5140.29
1822.7	5248.99
1823.65	5220.4
1824.6	5186.68
1825.55	5136
1826.49	5119.37
1827.44	5096.96
1828.39	5161.17
1829.34	5122.55
1830.28	5255.77
1831.23	5149.9
1832.18	5205.12
1833.12	5028.75
1834.07	5131.14
1835.02	5202.17
1835.97	5198.75
1836.91	5088.99
1837.86	5153.33
1838.81	5203.52
1839.75	5179.93
1840.7	5154.2
1841.64	5167.25
1842.59	5292.98
1843.54	5060.72
1844.48	5141.52
1845.43	5190.75
1846.37	5167.72
1847.32	5186.92
1848.27	5199.61
1849.21	5208.61
1850.16	5151.26
1851.1	5166.33
1852.05	5197.42
1852.99	5120.81
1853.94	5128.79
1854.88	5139.23
1855.83	5163.63
1856.77	5206.85
1857.72	5184.96
1858.66	5135.07
1859.6	5217.7
1860.55	5188.17
1861.49	5112.46
1862.44	5121.14
1863.38	5202.89
1864.32	5112.54
1865.27	5200.08
1866.21	5072.43
1867.15	5064.14
1868.1	5149.57
1869.04	5175.43
1869.99	5105.73
1870.93	5139.01
1871.87	5157.68
1872.81	5183.5
1873.76	5126.94
1874.7	5070.66
1875.64	5187.76
1876.58	5169.09
1877.53	5157.82
1878.47	5113.14
1879.41	5032.95
1880.35	5161.35
1881.29	5053.26
1882.24	5147.83
1883.18	5215.05
1884.12	5099.5
1885.06	5066.94
1886	5151.82
1886.95	5106.56
1887.89	5100.16
1888.83	5087.39
1889.77	5025.22
1890.71	5165.21
1891.65	5111.45
1892.59	5142.23
1893.53	5091.02
1894.47	5112.65
1895.41	5075.89
1896.35	5038.34
1897.29	5079.95
1898.23	5119.69
1899.17	5076.27
1900.11	5069.93
1901.05	5136.49
1901.99	5068.2
1902.93	5105.7
1903.87	5109.81
1904.81	5070.78
1905.75	5188.57
1906.69	5032.14
1907.63	5013.72
1908.57	5095.86
1909.51	5045.51
1910.45	5062.2
1911.39	5068.5
1912.32	4922.6
1913.26	5054.5
1914.2	5090.62
1915.14	5157.89
1916.08	4992.01
1917.02	5037.78
1917.95	4958.43
1918.89	5004.21
1919.83	4998.02
1920.77	5108.31
1921.71	5043.14
1922.64	5011.59
1923.58	5011.93
1924.52	5120.17
1925.46	5164.96
1926.39	5099.28
1927.33	5070.25
1928.27	5023.47
1929.2	5094.76
1930.14	5036.04
1931.08	4953.35
1932.01	4963.6
1932.95	5024.53
1933.89	5008.43
1934.82	5038.78
1935.76	5002.56
1936.7	5142.05
1937.63	5146.56
1938.57	5137.87
1939.5	5059.39
1940.44	5018.13
1941.37	5041.08
1942.31	5078.01
1943.25	5097.74
1944.18	5041.34
1945.11	4964.36
1946.05	5002.21
1946.99	5041.3
1947.92	5123.16
1948.86	4982.05
1949.79	5078.66
1950.73	4988.69
1951.66	4938.19
1952.59	4985.33
1953.53	5016.13
1954.46	5056.76
1955.4	5024.41
1956.33	5063.53
1957.26	5072.16
1958.2	4968.74
1959.13	4972.14
1960.06	5017.72
1961	5056.52
1961.93	5005.95
1962.86	5032.23
1963.8	4994.29
1964.73	5058.77
1965.66	4968.17
1966.6	5034.13
1967.53	4990.39
1968.46	5039.89
1969.4	4924.27
1970.33	4942.98
1971.26	4993.4
1972.19	4922.37
1973.13	4992.98
1974.06	4961.94
1974.99	4966.03
1975.92	4957.68
1976.85	4981.88
1977.79	4987.53
1978.72	5040.84
1979.65	5014.12
1980.58	4942.48
1981.51	4819.81
1982.44	4934.64
1983.37	5076.49
1984.31	4997.87
1985.24	4967.23
1986.17	4944.99
1987.1	5022.97
1988.03	4955.99
1988.96	5024.06
1989.89	5041.5
1990.82	4976.64
1991.75	5010.06
1992.68	4979.67
1993.61	5053.23
1994.54	5082.64
1995.47	4979.16
1996.4	4909.2
1997.33	5028.72
1998.26	5009.68
1999.19	5013.24
2000.12	5002.69
2001.05	4881
2001.98	5046
2002.9	4934.24
2003.84	5000.83
2004.76	4980.77
2005.69	4948.59
2006.62	5048.21
2007.55	4926.56
2008.48	4969.4
2009.41	4908.06
2010.33	4868.42
2011.26	4998.25
2012.19	4962.35
2013.12	4977.31
2014.05	5055.38
2014.97	4891.94
2015.9	4915.67
2016.83	5076.06
2017.76	4912.87
2018.68	5011.69
2019.61	4936.2
2020.54	4955.84
2021.47	4997.81
2022.39	4960.03
2023.32	4894.86
2024.25	4912.37
2025.18	4944.74
2026.1	4900.78
2027.03	4926.57
2027.95	5031.53
2028.88	4937.82
2029.81	4957.49
2030.73	5027.79
2031.66	5040.49
2032.58	4942.99
2033.51	4911.27
2034.44	4904.51
2035.36	4975.22
2036.29	5020.05
2037.21	5041.64
2038.14	4931.44
2039.06	4950.06
2039.99	4916.15
2040.91	4926.5
2041.84	5048.19
2042.76	4945.01
2043.69	4958.06
2044.61	4960.23
2045.54	4852.92
2046.46	4949.07
2047.39	4938.57
2048.31	5042.64
2049.24	5020.82
2050.16	4926.46
2051.08	4933.25
2052.01	5001.13
2052.93	4915.22
2053.86	4920.91
2054.78	4992.79
2055.7	4874.46
2056.63	4909
2057.55	4917.1
2058.47	4823.06
2059.39	4846.42
2060.32	5018.93
2061.24	4925.19
2062.16	4825.63
2063.09	4905.37
2064.01	4855.32
2064.93	4969.23
2065.85	4805.71
2066.78	4898.14
2067.7	4892.58
2068.62	4956.96
2069.54	4972.93
2070.47	4892.03
2071.39	4820.19
2072.31	4919.1
2073.23	4871.12
2074.15	4935.57
2075.07	4780.79
2076	4806.07
2076.92	4832.02
2077.84	4900.5
2078.76	4770.88
2079.68	4860.73
2080.6	4939.69
2081.52	4846.44
2082.44	4933.4
2083.36	4826.38
2084.28	4862.31
2085.2	4889.53
2086.12	4832.4
2087.04	4866.27
2087.96	4862.37
2088.88	4791.74
2089.8	4889.73
2090.72	4867.89
2091.64	4923.06
2092.56	4859.81
2093.48	4830.22
2094.4	4894.05
2095.32	4896.1
2096.24	4822.44
2097.16	4854.77
2098.08	4805.21
2099	4820.81
2099.92	4866.75
2100.84	4816.05
2101.75	4830.4
2102.67	4826.63
2103.59	4823.75
2104.51	4846.55
2105.43	4862.84
2106.35	4802.81
2107.26	4868.42
2108.18	4842.66
2109.1	4830.45
2110.02	4857.09
2110.94	4836.23
2111.85	4833.84
2112.77	4817.62
2113.69	4816.14
2114.61	4822.8
2115.52	4824.58
2116.44	4847.53
2117.36	4833.21
2118.27	4788.1
2119.19	4824.64
2120.11	4806.16
2121.02	4868.1
2121.94	4837.43
2122.86	4819.25
2123.77	4860.97
2124.69	4821.23
2125.61	4835.48
2126.52	4855.29
2127.44	4808.15
2128.35	4817.34
2129.27	4834.25
2130.19	4843.53
2131.1	4787.92
2132.02	4798.98
2132.93	4810.7
2133.85	4771.79
2134.76	4799.03
2135.68	4811.05
2136.59	4832.08
2137.51	4821.74
2138.42	4831.82
2139.34	4797.32
2140.25	4793.59
2141.17	4812.91
2142.08	4774.69
2143	4798.99
2143.91	4805.75
2144.82	4799.62
2145.74	4776.87
2146.65	4817.54
2147.56	4851.74
2148.48	4799.49
2149.39	4758.67
2150.31	4745.89
2151.22	4835.64
2152.13	4808.45
2153.05	4760.89
2153.96	4756.41
2154.87	4794.79
2155.79	4867.91
2156.7	4774.55
2157.61	4828.1
2158.52	4781.45
2159.44	4824.33
2160.35	4759.18
2161.26	4722.54
2162.17	4862.66
2163.09	4783.08
2164	4795.64
2164.85	4786.2
2165.76	4775.34
2166.68	4734.5
2167.59	4764.29
2168.51	4828.13
2169.42	4708.65
2170.34	4764.52
2171.26	4747.81
2172.17	4780.58
2173.09	4717.35
2174	4808.08
2174.92	4809.15
2175.83	4761.32
2176.75	4737.82
2177.66	4702.73
2178.58	4793.98
2179.49	4749.9
2180.41	4797.51
2181.32	4831.47
2182.24	4630.91
2183.15	4792.92
2184.06	4787.45
2184.98	4824.57
2185.89	4835.07
2186.81	4769.41
2187.72	4687.12
2188.64	4766.32
2189.55	4782.67
2190.46	4812.8
2191.38	4807.92
2192.29	4749.58
2193.2	4833.08
2194.12	4768.69
2195.03	4747.5
2195.94	4709.1
2196.85	4773.29
2197.77	4830.43
2198.68	4695.4
2199.59	4813.98
2200.51	4739.93
2201.42	4720.36
2202.33	4761.48
2203.24	4747.6
2204.16	4769.02
2205.07	4807.34
2205.98	4819.04
2206.89	4793.82
2207.8	4844.1
2208.71	4711.22
2209.63	4823.93
2210.54	4742.09
2211.45	4771.28
2212.36	4747.72
2213.27	4773.94
2214.18	4779.29
2215.09	4802.88
2216	4807.76
2216.92	4726.31
2217.83	4752.59
2218.74	4795.07
2219.65	4767.73
2220.56	4708.62
2221.47	4792.52
2222.38	4692.35
2223.29	4691.52
2224.2	4833.23
2225.11	4755.9
2226.02	4851.11
2226.93	4809.94
2227.84	4767.42
2228.75	4724.23
2229.66	4834.43
2230.57	4730.83
2231.48	4770.58
2232.39	4741.14
2233.29	4700.95
2234.2	4731.88
2235.11	4754.59
2236.02	4791.95
2236.93	4684.34
2237.84	4607.84
2238.75	4735.8
2239.66	4802.27
2240.56	4774.61
2241.47	4704.38
2242.38	4696.49
2243.29	4793.42
2244.2	4641.91
2245.11	4660.32
2246.01	4692.29
2246.92	4716.7
2247.83	4746.63
2248.74	4752.9
2249.64	4724.68
2250.55	4808.18
2251.46	4704.44
2252.37	4812.11
2253.27	4742.52
2254.18	4713.66
2255.09	4665.07
2255.99	4726.56
2256.9	4729.55
2257.81	4711.38
2258.71	4851.16
2259.62	4708.44
2260.53	4648.57
2261.43	4702.8
2262.34	4804.53
2263.25	4776.99
2264.15	4728.68
2265.06	4717.38
2265.96	4600.62
2266.87	4679.79
2267.77	4682.51
2268.68	4735.75
2269.59	4700.74
2270.49	4722.45
2271.4	4705.7
2272.3	4675.22
2273.2	4751.89
2274.11	4725.25
2275.02	4769.79
2275.92	4752.85
2276.82	4679.25
2277.73	4666.39
2278.64	4731.71
2279.54	4634.36
2280.44	4657.16
2281.35	4708.42
2282.25	4601.77
2283.16	4690.67
2284.06	4719.64
2284.96	4605.91
2285.87	4703.34
2286.77	4586.25
2287.67	4694.7
2288.58	4713.57
2289.48	4628.71
2290.38	4624.06
2291.29	4673.78
2292.19	4720.28
2293.09	4706.73
2294	4624.34
2294.9	4617.77
2295.8	4640.31
2296.7	4627.46
2297.61	4666.41
2298.51	4661.52
2299.41	4698.38
2300.31	4657.76
2301.22	4757.8
2302.12	4678.14
2303.02	4708.31
2303.92	4703.52
2304.82	4620.62
2305.72	4690.17
2306.63	4633.2
2307.53	4698.37
2308.43	4720.05
2309.33	4642.6
2310.23	4658.76
2311.13	4757.95
2312.03	4742.1
2312.94	4728.66
2313.84	4688
2314.74	4701.55
2315.64	4758.4
2316.54	4732.85
2317.44	4600.91
2318.34	4688.49
2319.24	4599.14
2320.14	4564.89
2321.04	4715.55
2321.94	4635
2322.84	4584.56
2323.74	4686.26
2324.64	4641.92
2325.54	4666.69
2326.44	4680.27
2327.34	4663.86
2328.24	4661.82
2329.14	4645.81
2330.03	4662.36
2330.93	4697.21
2331.83	4663.55
2332.73	4661.96
2333.63	4615.65
2334.53	4611.91
2335.43	4636.73
2336.33	4601.12
2337.23	4627.57
2338.12	4661.12
2339.02	4641.81
2339.92	4649.1
2340.82	4671.63
2341.72	4701.96
2342.61	4572.88
2343.51	4664.29
2344.41	4628.6
2345.31	4675.77
2346.2	4686.79
2347.1	4611.04
2348	4625.97
2348.9	4612.17
2349.79	4676.66
2350.69	4604.91
2351.59	4621.71
2352.48	4598.2
2353.38	4574.88
2354.28	4581.63
2355.18	4620.27
2356.07	4697.53
2356.97	4553.69
2357.86	4600.33
2358.76	4539.95
2359.66	4677.81
2360.55	4641.12
2361.45	4701.35
2362.34	4622.03
2363.24	4557.9
2364.14	4683.64
2365.03	4606.44
2365.93	4634.18
2366.82	4589.88
2367.72	4579.51
2368.61	4686.67
2369.51	4641.64
2370.4	4527.75
2371.3	4596.04
2372.19	4616.03
2373.09	4669.08
2373.98	4635.73
2374.88	4622.88
2375.77	4662.48
2376.67	4668.43
2377.56	4626.21
2378.45	4558.79
2379.35	4525.99
2380.24	4660.57
2381.14	4569.36
2382.03	4647.26
2382.92	4599.84
2383.82	4702.19
2384.71	4625.31
2385.6	4574.87
2386.5	4608.52
2387.39	4589.87
2388.28	4570.65
2389.18	4664.97
2390.07	4598.36
2390.96	4581.56
2391.86	4626.66
2392.75	4565.45
2393.64	4492.02
2394.53	4581.95
2395.42	4570.42
2396.32	4610.72
2397.21	4559.81
2398.1	4592.98
2398.99	4596.84
2399.89	4633.23
2400.78	4707.48
2401.67	4583.74
2402.56	4549.13
2403.45	4590.83
2404.35	4515.61
2405.24	4544.85
2406.13	4503.06
2407.02	4584.15
2407.91	4554.35
2408.8	4556.51
2409.69	4551.47
2410.58	4535.9
2411.47	4583.28
2412.36	4595.69
2413.26	4603.1
2414.15	4513.26
2415.04	4591.12
2415.93	4559.92
2416.82	4619.72
2417.71	4510.09
2418.6	4518.35
2419.49	4548.41
2420.38	4494.04
2421.27	4505.04
2422.16	4663.15
2423.05	4586.53
2423.93	4589.28
2424.82	4636.44
2425.71	4568.55
2426.6	4515.35
2427.49	4585.53
2428.38	4489.31
2429.27	4522.16
2430.16	4614.93
2431.05	4514.64
2431.94	4515.69
2432.82	4500.93
2433.71	4553.06
2434.6	4585.21
2435.49	4527.27
2436.38	4497.64
2437.27	4495.94
2438.15	4535.7
2439.04	4590.2
2439.93	4549.8
2440.82	4630.59
2441.71	4589.24
2442.59	4525.75
2443.48	4498.85
2444.37	4504.02
2445.26	4545.82
2446.14	4606.13
2447.03	4473.13
2447.92	4503.28
2448.8	4509.28
2449.69	4459.7
2450.58	4542.75
2451.46	4594.01
2452.35	4473.77
2453.24	4573.19
2454.12	4578.47
2455.01	4522.23
2455.9	4593.21
2456.78	4518.04
2457.67	4614.56
2458.56	4390.03
2459.44	4559.78
2460.33	4475.02
2461.21	4467.8
2462.1	4472.68
2462.98	4475.61
2463.87	4466.06
2464.75	4461.51
2465.64	4543.85
2466.53	4523.04
2467.41	4552.45
2468.29	4561.68
2469.18	4553.89
2470.06	4450.24
2470.95	4470.09
2471.83	4456.29
2472.72	4470.41
2473.6	4529.22
2474.49	4525.09
2475.37	4592.4
2476.26	4520.47
2477.14	4478.85
2478.02	4496.27
2478.91	4456.23
2479.79	4513.74
2480.67	4459.68
2481.56	4503.3
2482.44	4462.64
2483.33	4494.43
2484.21	4609.03
2485.09	4530.22
2485.97	4524.1
2486.86	4472.5
2487.74	4430.62
2488.62	4588.95
2489.51	4452.75
2490.39	4502.12
2491.27	4550.53
2492.15	4502.14
2493.04	4557.33
2493.92	4543.4
2494.8	4537.83
2495.68	4497.01
2496.56	4535.15
2497.45	4472.22
2498.33	4522.87
2499.21	4393.98
2500.09	4518.97
2500.97	4528.8
2501.86	4451.16
2502.74	4543.99
2503.62	4502.49
2504.5	4420
2505.38	4508.1
2506.26	4516.61
2507.14	4491.96
2508.02	4559.91
2508.9	4463.06
2509.78	4549.77
2510.67	4529.54
2511.55	4531.62
2512.43	4523.32
2513.31	4503.74
2514.19	4485.39
2515.07	4530.48
2515.95	4511.29
2516.83	4494.47
2517.71	4505.22
2518.59	4528.62
2519.47	4424.5
2520.35	4518.66
2521.23	4454.91
2522.11	4465.12
2522.99	4512.87
2523.86	4474
2524.74	4465.57
2525.62	4504.9
2526.5	4410.37
2527.38	4430.59
2528.26	4519.23
2529.14	4452.9
2530.02	4454.69
2530.9	4452.88
2531.77	4522.79
2532.65	4491.81
2533.53	4443.46
2534.41	4494.32
2535.29	4515.4
2536.16	4481.58
2537.04	4507.55
2537.92	4430.84
2538.8	4469.32
2539.68	4481.23
2540.55	4482.19
2541.43	4439.62
2542.31	4464.97
2543.19	4438.54
2544.06	4459.79
2544.94	4564.45
2545.82	4460.18
2546.69	4500.06
2547.57	4450.96
2548.45	4573.99
2549.32	4419.2
2550.2	4467.92
2551.08	4500.96
2551.95	4517.15
2552.83	4420.74
2553.71	4410.11
2554.58	4492.11
2555.46	4468.39
2556.33	4463.93
2557.21	4484.53
2558.09	4360.14
2558.96	4435.38
2559.84	4495.52
2560.71	4502.1
2561.59	4480.18
2562.46	4416.31
2563.34	4457.83
2564.21	4559.08
2565.09	4356.34
2565.96	4404.82
2566.84	4428.24
2567.71	4423.18
2568.59	4503.64
2569.46	4407.92
2570.34	4398.5
2571.21	4369.87
2572.09	4473.91
2572.96	4401.65
2573.84	4450.68
2574.71	4391.74
2575.58	4443.37
2576.46	4454.77
2577.33	4445.79
2578.21	4402.94
2579.08	4435.75
2579.95	4513.5
2580.83	4408.16
2581.7	4468.98
2582.57	4363.78
2583.45	4416.99
2584.32	4464.06
2585.19	4416.26
2586.06	4397.22
2586.94	4466.23
2587.81	4451.56
2588.68	4420.17
2589.55	4351.32
2590.43	4434.19
2591.3	4385.57
2592.17	4396.12
2593.04	4364.38
2593.92	4322.82
2594.79	4407.92
2595.66	4372.95
2596.53	4390.92
2597.4	4402.53
2598.28	4372.4
2599.15	4484.89
2600.02	4418.88
2600.89	4524.17
2601.76	4420.33
2602.63	4338.36
2603.5	4393.97
2604.37	4408.55
2605.25	4448.67
2606.12	4424.28
2606.99	4460.82
2607.86	4428.98
2608.73	4494.66
2609.6	4439.87
2610.47	4341.23
2611.34	4369.37
2612.21	4361.82
2613.08	4381.58
2613.95	4398.4
2614.82	4358.44
2615.69	4352.79
2616.56	4344.13
2617.43	4326.99
2618.3	4372.37
2619.17	4348.45
2620.04	4409.89
2620.91	4421.27
2621.78	4388.92
2622.65	4374.58
2623.52	4340.42
2624.39	4390.67
2625.26	4422.31
2626.12	4367.59
2626.99	4347.95
2627.86	4425.17
2628.73	4443.01
2629.6	4362.56
2630.47	4382.46
2631.33	4414.69
2632.2	4391.66
2633.07	4352.09
2633.94	4323.84
2634.81	4379.29
2635.68	4453.59
2636.54	4373.91
2637.41	4320.77
2638.28	4344.35
2639.15	4332.11
2640.01	4305.07
2640.88	4393.45
2641.75	4364.85
2642.61	4313.23
2643.48	4375.2
2644.35	4364.55
2645.22	4364.29
2646.08	4370.81
2646.95	4349.98
2647.82	4396.54
2648.68	4418.67
2649.55	4347.83
2650.42	4283.44
2651.28	4365.15
2652.15	4376.65
2653.01	4392.42
2653.88	4399.77
2654.75	4368.05
2655.61	4333.31
2656.48	4359.6
2657.34	4386.6
2658.21	4291.86
2659.08	4382.07
2659.94	4288.13
2660.8	4329.9
2661.67	4325.71
2662.54	4373.82
2663.4	4435.1
2664.27	4373.98
2665.13	4291.28
2666	4333.21
2666.86	4280.06
2667.72	4371.07
2668.59	4363.05
2669.45	4374.27
2670.32	4335.49
2671.18	4355.81
2672.05	4370.5
2672.91	4340.02
2673.77	4376.11
2674.64	4311.02
2675.5	4301.16
2676.37	4317.4
2677.23	4270.28
2678.09	4320.23
2678.96	4335.98
2679.82	4376.68
2680.68	4306.04
2681.55	4315.91
2682.41	4330.11
2683.27	4315.68
2684.14	4352.12
2685	4309.55
2685.86	4359.12
2686.72	4388.9
2687.59	4364.87
2688.45	4338.58
2689.31	4376.8
2690.18	4347.28
2691.04	4247.8
2691.9	4316.67
2692.76	4475.98
2693.62	4335.84
2694.49	4355.83
2695.35	4273.05
2696.21	4270.5
2697.07	4338.89
2697.93	4302.79
2698.79	4286.8
2699.65	4379.83
2700.52	4312.61
2701.38	4331.84
2702.24	4347.22
2703.1	4298.97
2703.96	4307.71
2704.82	4318.56
2705.68	4371.84
2706.54	4355.65
2707.4	4238.72
2708.26	4326.25
2709.13	4304.3
2709.98	4251.33
2710.84	4382.02
2711.71	4313.81
2712.57	4170.95
2713.42	4248.54
2714.28	4266.08
2715.15	4352.52
2716	4292.88
2716.86	4340.02
2717.72	4262.82
2718.58	4313.95
2719.44	4315.62
2720.3	4273.84
2721.16	4283.03
2722.02	4318.91
2722.88	4306.08
2723.74	4270.82
2724.6	4317.63
2725.46	4355.36
2726.31	4227.18
2727.17	4347.73
2728.03	4308.48
2728.89	4352
2729.75	4261.16
2730.61	4255.36
2731.46	4240.92
2732.32	4327.67
2733.18	4274.44
2734.04	4355.49
2734.9	4278.13
2735.75	4258.76
2736.61	4211.56
2737.47	4334.7
2738.33	4315.02
2739.18	4297.03
2740.04	4267.64
2740.9	4227.33
2741.76	4222.21
2742.61	4201.79
2743.47	4198.74
2744.33	4209.6
2745.18	4236.59
2746.04	4300.65
2746.9	4244.11
2747.75	4242.58
2748.61	4270.52
2749.47	4231.56
2750.32	4207.39
2751.18	4267.7
2752.03	4209.53
2752.89	4199.59
2753.75	4296.49
2754.6	4219.41
2755.46	4280.39
2756.31	4236.82
2757.17	4241.15
2758.03	4181.73
2758.88	4135.85
2759.74	4222.45
2760.59	4213.33
2761.45	4238.5
2762.3	4190.77
2763.16	4238.94
2764.01	4229.15
2764.87	4205.05
2765.72	4198.73
2766.58	4264.12
2767.43	4194.9
2768.28	4343.78
2769.14	4231.91
2769.99	4228.37
2770.85	4246.5
2771.7	4179.98
2772.55	4273.67
2773.41	4130.92
2774.26	4228.52
2775.12	4140.34
2775.97	4223.64
2776.82	4176.71
2777.68	4245.57
2778.53	4250.38
2779.38	4226.95
2780.24	4273.08
2781.09	4244.22
2781.94	4186.95
2782.8	4202.71
2783.65	4311.88
2784.5	4244.51
2785.35	4253.95
2786.21	4212.77
2787.06	4185.23
2787.91	4204.28
2788.76	4204.33
2789.62	4208.01
2790.47	4249.13
2791.32	4166.86
2792.17	4233.79
2793.03	4264.46
2793.88	4198.4
2794.73	4221.58
2795.58	4154.21
2796.43	4134.53
2797.28	4189.16
2798.14	4203.97
2798.99	4237.32
2799.84	4193.09
2800.69	4198.25
2801.54	4179.04
2802.39	4236.53
2803.24	4264.95
2804.09	4234.61
2804.94	4187.87
2805.79	4251.55
2806.65	4183.72
2807.5	4193.71
2808.35	4154.98
2809.2	4231.04
2810.05	4212.97
2810.9	4158.37
2811.75	4186.33
2812.6	4142.1
2813.45	4198.78
2814.3	4192.88
2815.15	4169.9
2816	4194.01
2816.85	4145.56
2817.69	4242.36
2818.55	4164.85
2819.39	4206
2820.24	4225.38
2821.09	4188.71
2821.94	4182.62
2822.79	4095.98
2823.64	4208.95
2824.49	4123.39
2825.34	4149.54
2826.19	4159.89
2827.03	4157.46
2827.88	4188.93
2828.73	4246.25
2829.58	4128.44
2830.43	4227.08
2831.28	4168.92
2832.12	4130.73
2832.97	4261.1
2833.82	4163.22
2834.67	4201.38
2835.51	4136.43
2836.36	4109.41
2837.21	4162.38
2838.06	4083.58
2838.9	4130.28
2839.75	4141.47
2840.6	4055.58
2841.45	4157.77
2842.29	4124.88
2843.14	4237.69
2843.99	4184.79
2844.83	4185.28
2845.68	4164.11
2846.53	4084.64
2847.37	4140.83
2848.22	4150.99
2849.07	4205.89
2849.91	4136.08
2850.76	4236.48
2851.6	4108.45
2852.45	4065.23
2853.3	4136.37
2854.14	4119.8
2854.99	4203.32
2855.83	4131.96
2856.68	4197.06
2857.52	4193.86
2858.37	4167.39
2859.21	4111.65
2860.06	4125.72
2860.91	4093.93
2861.75	4118.33
2862.6	4114.59
2863.44	4153.7
2864.28	4126.76
2865.13	4165.8
2865.97	4127.49
2866.82	4098.49
2867.66	4185.71
2868.51	4106.49
2869.35	4176.18
2870.2	4056.85
2871.04	4105.09
2871.88	4156.52
2872.73	4119.42
2873.57	4160.09
2874.42	4130.91
2875.26	4179.65
2876.1	4097.92
2876.95	4098.72
2877.79	4126.58
2878.63	4126.38
2879.48	4051.38
2880.32	4137.95
2881.16	4108.63
2882.01	4106.13
2882.85	4146.8
2883.69	4111.71
2884.53	4111.18
2885.38	4138.18
2886.22	4106.54
2887.06	4187.56
2887.9	4096.42
2888.75	4155.58
2889.59	4081.19
2890.43	4115.96
2891.27	4104.41
2892.12	4056.42
2892.96	4066.78
2893.8	4056.9
2894.64	4109
2895.48	4100.92
2896.32	4094.42
2897.16	4099.03
2898.01	4054.16
2898.85	4131.11
2899.69	4100.86
2900.53	4055.98
2901.37	4075.8
2902.21	4118.32
2903.05	4042.9
2903.89	4154.02
2904.73	4062.78
2905.57	4004.43
2906.42	4072.56
2907.26	4105.31
2908.1	4127
2908.94	4139.09
2909.78	4043.82
2910.62	4115.85
2911.46	4073.23
2912.3	4051.2
2913.14	3999.86
2913.98	4006.59
2914.82	4058.38
2915.66	4044.21
2916.5	4084.76
2917.34	4153.23
2918.17	4183.44
2919.01	4010.12
2919.85	4031.34
2920.69	4099.71
2921.53	4174.6
2922.37	4122.5
2923.21	4084.38
2924.05	4080.69
2924.89	4162.88
2925.72	4109.85
2926.56	4025.69
2927.4	4044.72
2928.24	4075.12
2929.08	3948.39
2929.92	4086.3
2930.76	4022.35
2931.59	4079.25
2932.43	4038.03
2933.27	4044.27
2934.11	4035.65
2934.95	4089.21
2935.78	4044.32
2936.62	4021.47
2937.46	4081.52
2938.3	4025.51
2939.13	4084.58
2939.97	3998.24
2940.81	4014.75
2941.64	3982.93
2942.48	4035.88
2943.32	4049.78
2944.15	4048.13
2944.99	3999.02
2945.83	4123.54
2946.66	4042.14
2947.5	4012.66
2948.34	3994.7
2949.17	4063.44
2950.01	4116.44
2950.84	4038.32
2951.68	4077.77
2952.52	4045.9
2953.35	4061.79
2954.19	4040.07
2955.02	4053.82
2955.86	4001.13
2956.69	4040.25
2957.53	4022.14
2958.37	4055.25
2959.2	4046.86
2960.04	4021.63
2960.87	4018.4
2961.71	3979.33
2962.54	4058.5
2963.38	4046.97
2964.21	3981.93
2965.05	3992.49
2965.88	3994.86
2966.72	3983.75
2967.55	4075.09
2968.38	4074.38
2969.22	4066.97
2970.05	4082.59
2970.89	4008.5
2971.72	4070.41
2972.55	4052.01
2973.39	4032.16
2974.22	4047.58
2975.06	4005.36
2975.89	4029.55
2976.72	4057.31
2977.56	4048.4
2978.39	4002.34
2979.22	4040.23
2980.06	4059.83
2980.89	3957.52
2981.72	3986.89
2982.55	4054.64
2983.39	4160.29
2984.22	3981.07
2985.05	4037.17
2985.89	4013.74
2986.72	4012.93
2987.55	4048.36
2988.38	4063.51
2989.21	4014.76
2990.05	4033.4
2990.88	3955.33
2991.71	4039.02
2992.54	4105.99
2993.38	4029.79
2994.21	3990.9
2995.04	4005.45
2995.87	4041.08
2996.7	4012.84
2997.53	3993.89
2998.36	4006.96
2999.2	3937.71
3000.03	4024.59
3000.86	4054.34
3001.69	3986.5
3002.52	4121.22
3003.35	4054.24
3004.18	4054.7
3005.01	4050.32
3005.84	4002.41
3006.67	3988.76
3007.5	3990.13
3008.33	3993.59
3009.16	4029.19
3009.99	4037.79
3010.82	4009.29
3011.65	4044.16
3012.48	3972.68
3013.31	4047.52
3014.14	4034.41
3014.97	4006.56
3015.8	3950.45
3016.63	3936.39
3017.46	4050.13
3018.29	3979.25
3019.12	3973.02
3019.95	3949.06
3020.78	4076.39
3021.61	3958.76
3022.44	3975.18
3023.27	4037.88
3024.09	3961.78
3024.92	4004.4
3025.75	4015.58
3026.58	3916.78
3027.41	3965.75
3028.24	3969.6
3029.07	3976.13
3029.89	4014.48
3030.72	3965.61
3031.55	4035.42
3032.38	3984.26
3033.21	3940.64
3034.03	3979.45
3034.86	3991.14
3035.69	3983.25
3036.52	4002.96
3037.35	4013.32
3038.17	3928.07
3039	4031.21
3039.83	4025.34
3040.65	4050.33
3041.48	3958.62
3042.31	4005.86
3043.13	4036.7
3043.96	4016.93
3044.79	3951.31
3045.61	4005.11
3046.44	3989.29
3047.27	4004.29
3048.09	3912.21
3048.92	4021.1
3049.75	4001.42
3050.57	4011
3051.4	4004
3052.22	3983.26
3053.05	3960.54
3053.88	3930.25
3054.7	4024.2
3055.53	4004.09
3056.35	4016.09
3057.18	4063.25
3058.01	3983.17
3058.83	3936.83
3059.65	4012.6
3060.48	3978.5
3061.31	3966.63
3062.13	3938.3
3062.96	3998.72
3063.78	4051.52
3064.61	3996.53
3065.43	4022.97
3066.25	4049.94
3067.08	4009.8
3067.9	4059.77
3068.73	4010.01
3069.55	3959.71
3070.38	4011.96
3071.2	4066.46
3072.02	3997.37
3072.85	4030.37
3073.67	3998.48
3074.5	4093.99
3075.32	4018.76
3076.14	4046.52
3076.97	4036.96
3077.79	3927.15
3078.61	3973.25
3079.44	4080.41
3080.26	4006.85
3081.08	4011.2
3081.91	3941.13
3082.73	4023.4
3083.55	3984.36
3084.37	4062.24
3085.2	4025.8
3086.02	3968.24
3086.84	3999.58
3087.66	3976.59
3088.49	3986.75
3089.31	3990.22
3090.13	3930.22
3090.95	4030.28
3091.78	3998.89
3092.6	3929.42
3093.42	3984.68
3094.24	3952.46
3095.06	4047.47
3095.88	4034.27
3096.71	4030.38
3097.53	4012.25
3098.35	3977.95
3099.17	3982
3099.99	4005.59
3100.81	4045.91
3101.63	3944.72
3102.45	3953.28
3103.28	4041.99
3104.1	4010.46
3104.92	3990.99
3105.74	4009.58
3106.56	4031
3107.38	3978.55
3108.2	3991.45
3109.02	4028.59
3109.84	3958.77
3110.66	4052.45
3111.48	3994.86
3112.3	4016.33
3113.12	4001.13
3113.94	3927.69
3114.76	4064.16
3115.58	4010.62
3116.4	4067.21
3117.22	4026.49
3118.04	4018.53
3118.86	4044.24
3119.68	3961.33
3120.5	3956.68
3121.32	4104.83
3122.13	4081.26
3122.95	4057.55
3123.77	4008.02
3124.59	4032.72
3125.41	4015.48
3126.23	4036.94
3127.05	3978.13
3127.86	4085.81
3128.68	4076.82
3129.5	4094.08
3130.32	4014.55
3131.14	4082.98
3131.96	4060.64
3132.77	4088.91
3133.59	4077.63
3134.41	4027.62
3135.23	4057.79
3136.04	4077.23
3136.86	4084.67
3137.68	4083.41
3138.5	4034.7
3139.32	4128.42
3140.13	4175.16
3140.95	4081.83
3141.77	4057.1
3142.58	3991.87
3143.4	4088.14
3144.22	4038.85
3145.03	4083.51
3145.85	4073.3
3146.67	4056.87
3147.48	4074.51
3148.3	4094.55
3149.12	4010.21
3149.93	4094.52
3150.75	4030.46
3151.57	4105.37
3152.38	4031.27
3153.2	4112.76
3154.01	4085.96
3154.83	4123.57
3155.64	4134.69
3156.46	4093.04
3157.28	4075.86
3158.09	4105.69
3158.91	4089.7
3159.72	4026.86
3160.54	4075.7
3161.35	4078.6
3162.17	4194.32
3162.98	4115.93
3163.8	4159.61
3164.61	4083.94
3165.43	4106.66
3166.24	4098.62
3167.06	4144.37
3167.87	4104.68
3168.69	4164.1
3169.5	4127.92
3170.31	4132.47
3171.13	4061.9
3171.94	4111.16
3172.76	4084.49
3173.57	4099.79
3174.38	4178.66
3175.2	4095.1
3176.01	4061.07
3176.82	4184.28
3177.64	4093.72
3178.45	4136.87
3179.26	4142.95
3180.08	4178.6
3180.89	4121.81
3181.71	4170.15
3182.52	4117.59
3183.33	4114.79
3184.14	4114.08
3184.96	4073.22
3185.77	4133.29
3186.58	4114.77
3187.4	4105.35
3188.21	4157.52
3189.02	4121.54
3189.83	4112.88
3190.64	4138.42
3191.46	4149.07
3192.27	4223.07
3193.08	4194.77
3193.89	4218.47
3194.7	4264.43
3195.52	4226.81
3196.33	4225.19
3197.14	4193.98
3197.95	4144.57
3198.76	4113.27
3199.57	4149.07
3200.38	4182.53
3201.2	4140.65
3202.01	4140.65
3202.82	4155.72
3203.63	4153.18
3204.44	4235.53
3205.25	4171.67
3206.06	4198.75
3206.87	4242.04
3207.68	4273.69
3208.49	4209.18
3209.3	4203.39
3210.11	4173.91
3210.92	4158.23
3211.73	4123.02
3212.54	4133.39
3213.35	4209.16
3214.16	4229.2
3214.97	4265.16
3215.78	4126.6
3216.59	4129.31
3217.4	4204.49
3218.21	4139.59
3219.02	4250.7
3219.83	4181.54
3220.64	4130.88
3221.45	4138.56
3222.26	4204.18
3223.07	4149.53
3223.88	4093.12
3224.69	4172.79
3225.5	4151.31
3226.3	4207.27
3227.11	4221.86
3227.92	4140.66
3228.73	4189.74
3229.54	4192.36
3230.35	4189.81
3231.15	4102.74
3231.96	4170.24
3232.77	4223.23
3233.58	4110.86
3234.39	4111.34
3235.19	4131.6
3236	4092.34
3236.81	4181.34
3237.62	4170.81
3238.42	4125.91
3239.23	4169.51
3240.04	4113.78
3240.85	4128.42
3241.65	4153.82
3242.46	4186.65
3243.27	4156.79
3244.07	4154.32
3244.88	4154.64
3245.69	4171.67
3246.49	4144.63
3247.3	4128.74
3248.11	4103.29
3248.91	4071.69
3249.72	4160.29
3250.53	4168.69
3251.33	4145.98
3252.14	4191.13
3252.95	4117.86
3253.75	4165.87
3254.56	4157.4
3255.36	4061.68
3256.17	4128.86
3256.98	4127.68
3257.78	4082.59
3258.59	4092.79
3259.39	4161.81
3260.2	4113.18
3261	4203.99
3261.81	4174.45
3262.61	4086.76
3263.42	4104.07
3264.22	4110.11
3265.03	4086.25
3265.83	4120.38
3266.64	4120.37
3267.44	4170.36
3268.25	4111.27
3269.05	4125.06
3269.86	4178.85
3270.66	4141.82
3271.46	4203.22
3272.27	4369.44
3273.07	4188.75
3273.88	4141.84
3274.68	4166.53
3275.48	4144.78
3276.29	4032.29
3277.09	4113.56
3277.9	4157.47
3278.7	4064.17
3279.5	4123.59
3280.31	4102.56
3281.11	4140.67
3281.91	4140.14
3282.72	4110.34
3283.52	4148.21
3284.32	4103.43
3285.13	4118.13
3285.93	4103.35
3286.73	4035.47
3287.53	4133.88
3288.34	4097
3289.14	4139.45
3289.94	4098.33
3290.74	4075.91
3291.55	4151.16
3292.35	4152.14
3293.15	4111.09
3293.95	4118.15
3294.75	4059.29
3295.56	4054.71
3296.36	4093.3
3297.16	4111.43
3297.96	4092.39
3298.76	4198.51
3299.56	4156.69
3300.37	4110.06
3301.17	4125.39
3301.97	4159.44
3302.77	4130.67
3303.57	4137.15
3304.37	4103.91
3305.17	4124.08
3305.97	4076.01
3306.77	4136.03
3307.58	4193.01
3308.38	4063.14
3309.18	4127.7
3309.98	4142.68
3310.78	4060.71
3311.58	4039.91
3312.38	4085.27
3313.18	4165.56
3313.98	4129.28
3314.78	4087.09
3315.58	4100.19
3316.38	4182.88
3317.18	4131.43
3317.98	4111.35
3318.78	4127.72
3319.58	4177.8
3320.38	4172.3
3321.18	4093.94
3321.97	4149.61
3322.77	4072.63
3323.57	4078.86
3324.37	4090.26
3325.17	4112.91
3325.97	4150.57
3326.77	4091.46
3327.57	4140.01
3328.37	4117.02
3329.16	4101.2
3329.96	4109.93
3330.76	4110.64
3331.56	4096.97
3332.36	4068.7
3333.16	4091.8
3333.95	4128.8
3334.75	4083.96
3335.55	4063
3336.35	4171.15
3337.15	4098.83
3337.94	4074.44
3338.74	4110.84
3339.54	4041.46
3340.34	4103.85
3341.13	4096.99
3341.93	4011.5
3342.73	4078.82
3343.53	4006.39
3344.32	4086.7
3345.12	4036.43
3345.92	4119.53
3346.71	4023.32
3347.51	4140.52
3348.31	4033.39
3349.1	4059.46
3349.9	4060.15
3350.7	4104.62
3351.49	4119.27
3352.29	4081.29
3353.09	4069.16
3353.88	4099.41
3354.68	4080.3
3355.47	4114.05
3356.27	4099.75
3357.07	4062.03
3357.86	4065.3
3358.66	4097.63
3359.45	4167.1
3360.25	4084.17
3361.04	4099.63
3361.84	4050.68
3362.63	4085.13
3363.43	4065.09
3364.23	4074
3365.02	4120.08
3365.82	4104.61
3366.61	4132.18
3367.41	4104.78
3368.2	4120.59
3369	4079.23
3369.79	4100.25
3370.58	4110.17
3371.38	4094.05
3372.17	4058.19
3372.97	4106.18
3373.76	4127.15
3374.56	4055.7
3375.35	4135.51
3376.14	4021.51
3376.94	4133.24
3377.73	4101.41
3378.52	4125.27
3379.32	4110.16
3380.11	4093.39
3380.91	4124.54
3381.7	3942.34
3382.49	4112.68
3383.29	4073.59
3384.08	4122.9
3384.87	4028.51
3385.67	4035.38
3386.46	4113.98
3387.25	4069.8
3388.04	4081.15
3388.84	4080.43
3389.63	4094.04
3390.42	4090.19
3391.21	4037.34
3392.01	4030.97
3392.8	4102.6
3393.59	4007.29
3394.38	4076.72
3395.18	4126.9
3395.97	4124.15
3396.76	4020.44
3397.55	4074.59
3398.34	4057.68
3399.13	4041.23
3399.93	4101.9
3400.72	3967.93
3401.51	4036.98
3402.3	4081.69
3403.09	4116.52
3403.88	4049.65
3404.68	4105.78
3405.47	4131.24
3406.26	4028.68
3407.05	4083.69
3407.84	4025.26
3408.63	4039.47
3409.42	4043.6
3410.21	4015.06
3411	4025.92
3411.79	4007.26
3412.58	3990.04
3413.37	4046.55
3414.16	3989.41
3414.95	3984.91
3415.74	4051.38
3416.53	4122.97
3417.32	4001.58
3418.11	4044.79
3418.9	4040.2
3419.69	4088.29
3420.48	4020.68
3421.27	4076.11
3422.06	4061.54
3422.85	4017.43
3423.64	4028.72
3424.43	4037.46
3425.22	4043.51
3426.01	3985.13
3426.8	4003.19
3427.59	4080.64
3428.38	3982.08
3429.16	4027.19
3429.95	4014.88
3430.74	4009.34
3431.53	4010.8
3432.32	4025.84
3433.11	3984.17
3433.9	3941.16
3434.68	4032.07
3435.47	4011.37
3436.26	3980.26
3437.05	3976.91
3437.84	3973.42
3438.62	4010.99
3439.41	4070.66
3440.2	3973.8
3440.99	3991.41
3441.77	4062.63
3442.56	4025.45
3443.35	4001.53
3444.14	3996
3444.92	3951.37
3445.71	4021.35
3446.5	3968.3
3447.28	3997.72
3448.07	4012.5
3448.86	3959.28
3449.65	3993.68
3450.43	4017.72
3451.22	3958.62
3452.01	3949.57
3452.79	4020.72
3453.58	3901.88
3454.37	3978.49
3455.15	3981.33
3455.94	3910.94
3456.72	3996.46
3457.51	4008.18
3458.29	3945.45
3459.08	3984.15
3459.87	4019.2
3460.65	3975.39
3461.44	4013.4
3462.22	3989.3
3463.01	4067.65
3463.8	3987.27
3464.58	3925.42
3465.36	3946.3
3466.15	3892.52
3466.94	3851.17
3467.72	3977.41
3468.51	3901.57
3469.29	3920
3470.08	3928.71
3470.86	3932.91
3471.64	3991.99
3472.43	3837.99
3473.21	3864.62
3474	3860.4
3474.78	3940.38
3475.57	3913.23
3476.35	3912.62
3477.14	3880.16
3477.92	3835.4
3478.7	3885.19
3479.49	3877.29
3480.27	3892.54
3481.06	3924.16
3481.84	3880.89
3482.62	3856.49
3483.41	3901.75
3484.19	3909.83
3484.97	3939.09
3485.76	3856.12
3486.54	3895.95
3487.32	3861.95
3488.1	3842.58
3488.89	3908.39
3489.67	3935.82
3490.45	3867.94
3491.24	3882.92
3492.02	3942.6
3492.8	3839.66
3493.58	3929.44
3494.37	3849.79
3495.15	3882.74
3495.93	3919.14
3496.71	3792.42
3497.5	3875.99
3498.28	3877.45
3499.06	3871.6
3499.84	3871.46
3500.62	3789.52
3501.4	3886.07
3502.19	3794.34
3502.97	3881.47
3503.75	3809.86
3504.53	3796.55
3505.31	3776.61
3506.09	3804.79
3506.88	3840.55
3507.66	3796.24
3508.44	3653.15
3509.22	3771.89
3510	3834.59
3510.78	3752.27
3511.56	3856.1
3512.34	3773.62
3513.12	3757.15
3513.9	3779.77
3514.68	3810.12
3515.46	3703.96
3516.24	3790.42
3517.02	3787.77
3517.8	3656.28
3518.59	3733.28
3519.36	3697.47
3520.14	3712.03
3520.92	3731.13
3521.7	3783.88
3522.48	3694.17
3523.26	3675.46
3524.04	3696.75
3524.82	3699.26
3525.6	3670.24
3526.38	3713.67
3527.16	3730.73
3527.94	3738.92
3528.72	3682.95
3529.5	3719.56
3530.28	3698.89
3531.06	3746.48
3531.83	3679.83
3532.61	3681.61
3533.39	3640.41
3534.17	3697.36
3534.95	3580.59
3535.73	3645.43
3536.5	3709.34
3537.28	3621.84
3538.06	3666.07
3538.84	3721.24
3539.62	3705.62
3540.4	3751.22
3541.17	3612.01
3541.95	3649.62
3542.73	3563.73
3543.51	3661.01
3544.29	3719.11
3545.06	3623.23
3545.84	3598.59
3546.62	3624.81
3547.39	3554.07
3548.17	3572.42
3548.95	3539.13
3549.73	3603.5
3550.5	3583.91
3551.28	3558.52
3552.06	3583.88
3552.83	3483.43
3553.61	3581.47
3554.39	3550.44
3555.16	3489.91
3555.94	3581.44
3556.72	3567.54
3557.49	3580.66
3558.27	3581.44
3559.04	3621.88
3559.82	3512.89
3560.6	3534.22
3561.37	3517.68
3562.15	3559.6
3562.92	3583.05
3563.7	3531.1
3564.48	3550.6
3565.25	3618.15
3566.03	3616.05
3566.8	3569.22
3567.58	3521.26
3568.35	3560.1
3569.13	3556.64
3569.9	3582.98
3570.68	3586.15
3571.45	3509.43
3572.23	3609.9
3573	3564.39
3573.78	3518.37
3574.55	3533.38
3575.33	3532.75
3576.1	3464.71
3576.88	3531.06
3577.65	3473.94
3578.42	3551.69
3579.2	3500.77
3579.97	3554.06
3580.75	3511.6
3581.52	3497.9
3582.29	3472.26
3583.07	3519.13
3583.84	3477.36
3584.62	3482.89
3585.39	3445.57
3586.16	3472.64
3586.94	3456.32
3587.71	3391.44
3588.48	3470.69
3589.26	3551.25
3590.03	3457.29
3590.8	3420.84
3591.57	3461.36
3592.35	3440.73
3593.12	3430.19
3593.89	3486.37
3594.67	3415.13
3595.44	3443
3596.21	3459.59
3596.98	3444.35
3597.76	3468.62
3598.53	3355.22
3599.3	3448.63
3600.07	3422.81
3600.84	3476.63
3601.62	3391.78
3602.39	3384.49
3603.16	3404.03
3603.93	3473.78
3604.7	3470.24
3605.48	3415.7
3606.25	3446.54
3607.02	3417.35
3607.79	3430.92
3608.56	3459.57
3609.33	3465.85
3610.1	3402.85
3610.87	3465.61
3611.65	3430.47
3612.42	3412.26
3613.19	3400.55
3613.96	3454.25
3614.73	3426.67
3615.5	3382.67
3616.27	3387.75
3617.04	3382.53
3617.81	3392.85
3618.58	3399.01
3619.35	3413.97
3620.12	3380.68
3620.89	3407.36
3621.66	3429.12
3622.43	3434.83
3623.2	3403.8
3623.97	3354.02
3624.74	3396.12
3625.51	3333.42
3626.28	3428.88
3627.05	3345.39
3627.82	3352.63
3628.59	3317.58
3629.36	3365.69
3630.13	3315
3630.9	3407.71
3631.67	3323.08
3632.44	3339.91
3633.21	3334.71
3633.97	3367.76
3634.74	3316.34
3635.51	3376.36
3636.28	3304.14
3637.05	3263.94
3637.82	3324.92
3638.59	3328.6
3639.35	3302.64
3640.12	3295.6
3640.89	3301.27
3641.66	3326.93
3642.43	3294.62
3643.2	3264.74
3643.96	3260.73
3644.73	3262.94
3645.5	3277.21
3646.27	3271.53
3647.03	3318.73
3647.8	3361.07
3648.57	3278.2
3649.34	3274.3
3650.1	3282.98
3650.87	3296.45
3651.64	3289.66
3652.41	3254.09
3653.17	3183.17
3653.94	3284.68
3654.71	3251.74
3655.47	3271.95
3656.24	3215.7
3657.01	3222.43
3657.77	3257.09
3658.54	3224.54
3659.31	3277.78
3660.07	3241.53
3660.84	3258.88
3661.6	3294.29
3662.37	3218.69
3663.14	3197.47
3663.9	3111.47
3664.67	3146.01
3665.44	3230.95
3666.2	3218.62
3666.97	3157.54
3667.73	3145.27
3668.5	3239.45
3669.26	3188.62
3670.03	3101.9
3670.79	3161.35
3671.56	3156.6
3672.32	3094.59
3673.09	3112.04
3673.85	3157.47
3674.62	3127.15
3675.38	3189.01
3676.15	3091.2
3676.91	3210.26
3677.68	3150.3
3678.44	3151.3
3679.21	3250.83
3679.97	3061.29
3680.74	3164.26
3681.5	3096.39
3682.27	3153.86
3683.03	3143.07
3683.79	3157.15
3684.56	3106.54
3685.32	3143.05
3686.08	3166.22
3686.85	3194.87
3687.61	3096.94
3688.38	3203.87
3689.14	3152.88
3689.9	3082.91
3690.67	3107.84
3691.43	3177.54
3692.19	3114.29
3692.96	3129.25
3693.72	3127.41
3694.48	3203.47
3695.25	3182.35
3696.01	3136.1
3696.77	3124.68
3697.53	3158.02
3698.3	3113.95
3699.06	3093.37
3699.82	3061.08
3700.58	3061.02
3701.35	3063.77
3702.11	3056.66
3702.87	3087.16
3703.63	3080.92
3704.4	3043.18
3705.16	3122.23
3705.92	3078.84
3706.68	3025.06
3707.44	2966.24
3708.2	3020.95
3708.97	2979.49
3709.73	3006.53
3710.49	3027.45
3711.25	3029.53
3712.01	3074.15
3712.77	3024.87
3713.54	3029.23
3714.3	3009.57
3715.06	2971.74
3715.82	3012.9
3716.58	3007.12
3717.34	3027.37
3718.1	3050.76
3718.86	3046.3
3719.62	3036.7
3720.38	3028.89
3721.14	3083.52
3721.9	3066.1
3722.66	3035.32
3723.42	3029.54
3724.18	3087.52
3724.94	3089.3
3725.7	3077.38
3726.46	3011.1
3727.22	2970.15
3727.98	2958.21
3728.74	3009.89
3729.5	2973.14
3730.26	2985.1
3731.02	3110.48
3731.78	3017.83
3732.54	2998.74
3733.3	3004.66
3734.06	2923.33
3734.82	3016.31
3735.58	3038.48
3736.34	2991.51
3737.1	2960.47
3737.86	2915.87
3738.61	3006.21
3739.37	2943.84
3740.13	2949.07
3740.89	2919.01
3741.65	2913.63
3742.41	2940.9
3743.17	2933.19
3743.92	2980.86
3744.68	2983.1
3745.44	2918.7
3746.2	3010.8
3746.96	2944.1
3747.71	2988.47
3748.47	2932.27
3749.23	2986.2
3749.99	2927.44
3750.75	2915.05
3751.5	3005.63
3752.26	3000.5
3753.02	2952.06
3753.77	2994.64
3754.53	3003.13
3755.29	3007.04
3756.05	3011.77
3756.8	2982.63
3757.56	2997.89
3758.32	3045.73
3759.07	3004.3
3759.83	2982.11
3760.59	2965.33
3761.34	2973.22
3762.1	2945.57
3762.86	3020.08
3763.61	2917.72
3764.37	2957.67
3765.13	2982.29
3765.88	3034.99
3766.64	3024.02
3767.39	2952.5
3768.15	3018.54
3768.91	2954.2
3769.66	2984.05
3770.42	2980.02
3771.17	2940.94
3771.93	2948.11
3772.68	2879.14
3773.44	3011.39
3774.2	2908.13
3774.95	2961.19
3775.71	2986.5
3776.46	2949.98
3777.22	2941.29
3777.97	2891.38
3778.73	2942.02
3779.48	2966.72
