#Acq. time (s)=	120
#Accumulations=	3
#Range=	Off
#Autofocus=	Off
#Macrospot=	Off
#AutoExposure=	Off
#Spike filter=	Multiple accum.
#Delay time (s)=	0
#Binning=	1
#Readout mode=	Signal-Dark
#DeNoise=	Off
#ICS correction=	Off
#Dark correction=	Off
#Inst. Process=	Off
#Detector temperature (°C)=	-75.13
#Instrument=	LabRAM HR Evol
#Detector=	Synapse
#Objective=	X40_UVB
#Grating=	1800 (500nm)
#ND Filter=	100%
#Laser (nm)=	229 
#Spectro (cm-¹)=	2350.07
#Hole=	150.001
#Range=	UV
#StageXY=	Marzhauser
#StageZ=	Marzhauser
#X (µm)=	0
#Y (µm)=	0
#Z (µm)=	0
#Full time(mm:ss)=	6:02
#Project=	2021-4-15_Andrew_fertilizer_DUV
#Sample=	
#Site=	
#Title=	_14_02_28_2021_04_15_Lebanon_3_120 s_229 nm_1800 (500nm)_X40_UVB_150_100%
#Remark=	
#Date=	15.04.2021 14:04
#Acquired=	15.04.2021 14:04:29
#Edit:Mul=	15.04.2021 14:08:56
#Edit:Mul=	15.04.2021 14:09:04
727.454	6.3493
729.109	53.969
730.763	38.0958
732.417	85.7155
734.071	50.7944
735.725	63.493
737.376	38.0958
739.029	19.0479
740.683	60.3183
742.336	25.3972
743.989	34.9211
745.642	-6.3493
747.295	15.8732
748.948	82.5409
750.6	47.6197
752.253	63.493
753.905	95.2395
755.558	111.113
757.21	88.8902
758.862	44.4451
760.511	66.6676
762.163	85.7155
763.814	57.1437
765.466	107.938
767.117	111.113
768.768	57.1437
770.42	104.763
772.071	136.51
773.721	114.287
775.372	92.0648
777.02	82.5409
778.671	79.3662
780.321	149.208
781.971	79.3662
783.621	88.8902
785.271	47.6197
786.921	53.969
788.571	92.0648
790.218	66.6676
791.867	133.335
793.517	114.287
795.166	177.78
796.815	101.589
798.464	69.8423
800.113	53.969
801.759	114.287
803.407	66.6676
805.056	69.8423
806.704	142.859
808.352	114.287
810	104.763
811.646	111.113
813.293	174.606
814.941	107.938
816.589	25.3972
818.236	98.4141
819.881	76.1916
821.528	114.287
823.175	126.986
824.822	101.589
826.469	107.938
828.113	165.082
829.759	101.589
831.406	133.335
833.052	107.938
834.698	98.4141
836.341	117.462
837.987	107.938
839.633	114.287
841.279	79.3662
842.924	149.208
844.567	120.637
846.212	76.1916
847.857	114.287
849.502	136.51
851.145	101.589
852.789	133.335
854.434	69.8423
856.079	133.335
857.72	73.0169
859.365	95.2395
861.009	133.335
862.653	161.907
864.294	92.0648
865.938	98.4141
867.581	136.51
869.225	88.8902
870.865	79.3662
872.509	117.462
874.152	139.685
875.792	88.8902
877.435	114.287
879.078	-3.17465
880.72	133.335
882.36	92.0648
884.003	111.113
885.645	126.986
887.284	53.969
888.926	63.493
890.568	85.7155
892.207	79.3662
893.849	79.3662
895.49	50.7944
897.129	126.986
898.77	88.8902
900.411	120.637
902.05	114.287
903.69	63.493
905.331	73.0169
906.969	95.2395
908.61	104.763
910.25	88.8902
911.887	82.5409
913.528	107.938
915.168	111.113
916.805	101.589
918.444	50.7944
920.084	126.986
921.721	50.7944
923.36	142.859
924.999	82.5409
926.636	101.589
928.275	88.8902
929.911	92.0648
931.55	31.7465
933.188	92.0648
934.824	120.637
936.462	123.811
938.098	152.383
939.736	53.969
941.374	126.986
943.009	123.811
944.647	126.986
946.282	3.17465
947.919	133.335
949.556	95.2395
951.191	82.5409
952.828	76.1916
954.462	187.304
956.099	73.0169
957.736	133.335
959.37	111.113
961.006	168.256
962.64	101.589
964.276	136.51
965.909	85.7155
967.545	126.986
969.178	79.3662
970.814	92.0648
972.45	123.811
974.083	126.986
975.718	92.0648
977.35	107.938
978.985	168.256
980.618	114.287
982.253	190.479
983.884	130.161
985.519	158.732
987.151	73.0169
988.785	193.654
990.417	111.113
992.051	222.225
993.682	171.431
995.316	298.417
996.947	371.434
998.58	234.924
1000.21	330.163
1001.84	380.958
1003.47	365.085
1005.11	406.355
1006.74	336.513
1008.37	276.194
1010	196.828
1011.63	317.465
1013.26	231.749
1014.9	174.606
1016.53	212.701
1018.16	158.732
1019.79	180.955
1021.42	257.147
1023.05	180.955
1024.68	111.113
1026.31	190.479
1027.94	234.924
1029.57	136.51
1031.2	212.701
1032.83	123.811
1034.46	200.003
1036.09	247.623
1037.71	95.2395
1039.34	190.479
1040.97	95.2395
1042.6	142.859
1044.23	44.4451
1045.86	136.51
1047.49	114.287
1049.11	152.383
1050.74	104.763
1052.37	149.208
1054	66.6676
1055.63	126.986
1057.25	98.4141
1058.88	92.0648
1060.51	180.955
1062.13	85.7155
1063.76	34.9211
1065.39	139.685
1067.01	126.986
1068.64	73.0169
1070.27	155.558
1071.89	130.161
1073.52	142.859
1075.14	123.811
1076.77	107.938
1078.4	9.52395
1080.02	149.208
1081.65	123.811
1083.27	117.462
1084.9	101.589
1086.52	133.335
1088.15	130.161
1089.78	142.859
1091.4	104.763
1093.02	73.0169
1094.65	117.462
1096.27	101.589
1097.9	136.51
1099.52	104.763
1101.14	117.462
1102.77	101.589
1104.39	85.7155
1106.02	85.7155
1107.64	19.0479
1109.26	31.7465
1110.89	60.3183
1112.51	82.5409
1114.13	126.986
1115.75	66.6676
1117.38	168.256
1119	165.082
1120.62	66.6676
1122.24	85.7155
1123.86	152.383
1125.49	76.1916
1127.11	206.352
1128.73	136.51
1130.35	95.2395
1131.97	130.161
1133.6	152.383
1135.22	98.4141
1136.84	15.8732
1138.46	104.763
1140.08	193.654
1141.7	146.034
1143.32	130.161
1144.94	85.7155
1146.56	123.811
1148.18	120.637
1149.8	92.0648
1151.42	152.383
1153.04	161.907
1154.66	168.256
1156.28	130.161
1157.9	142.859
1159.52	76.1916
1161.14	190.479
1162.75	212.701
1164.37	101.589
1165.99	101.589
1167.61	149.208
1169.23	149.208
1170.85	180.955
1172.46	180.955
1174.08	168.256
1175.7	206.352
1177.32	228.575
1178.94	161.907
1180.55	228.575
1182.17	228.575
1183.79	126.986
1185.4	165.082
1187.02	206.352
1188.64	85.7155
1190.26	82.5409
1191.87	66.6676
1193.49	63.493
1195.1	168.256
1196.72	161.907
1198.34	190.479
1199.95	139.685
1201.57	57.1437
1203.18	107.938
1204.8	136.51
1206.41	146.034
1208.03	187.304
1209.65	155.558
1211.26	120.637
1212.88	120.637
1214.49	133.335
1216.1	130.161
1217.72	212.701
1219.33	95.2395
1220.95	123.811
1222.56	190.479
1224.18	104.763
1225.79	92.0648
1227.4	190.479
1229.02	168.256
1230.63	158.732
1232.24	101.589
1233.86	193.654
1235.47	174.606
1237.08	126.986
1238.69	69.8423
1240.31	200.003
1241.92	196.828
1243.53	177.78
1245.14	238.099
1246.76	95.2395
1248.37	136.51
1249.98	158.732
1251.59	231.749
1253.2	130.161
1254.81	146.034
1256.43	168.256
1258.04	149.208
1259.65	168.256
1261.26	123.811
1262.87	152.383
1264.48	165.082
1266.09	133.335
1267.7	177.78
1269.31	234.924
1270.92	130.161
1272.53	139.685
1274.14	193.654
1275.75	161.907
1277.36	152.383
1278.97	212.701
1280.58	136.51
1282.19	174.606
1283.8	184.13
1285.41	212.701
1287.01	174.606
1288.62	187.304
1290.23	130.161
1291.84	136.51
1293.45	123.811
1295.06	203.178
1296.67	200.003
1298.27	247.623
1299.88	212.701
1301.49	187.304
1303.1	238.099
1304.7	180.955
1306.31	190.479
1307.92	171.431
1309.53	215.876
1311.13	149.208
1312.74	231.749
1314.35	184.13
1315.95	152.383
1317.56	196.828
1319.16	168.256
1320.77	180.955
1322.38	253.972
1323.98	130.161
1325.59	139.685
1327.19	228.575
1328.8	168.256
1330.41	228.575
1332.01	200.003
1333.61	206.352
1335.22	247.623
1336.82	184.13
1338.43	244.448
1340.03	225.4
1341.64	234.924
1343.24	231.749
1344.85	247.623
1346.45	209.527
1348.05	231.749
1349.66	190.479
1351.26	257.147
1352.87	307.941
1354.47	247.623
1356.07	269.845
1357.68	273.02
1359.28	215.876
1360.88	349.211
1362.48	241.273
1364.09	263.496
1365.69	231.749
1367.29	288.893
1368.89	349.211
1370.49	231.749
1372.1	238.099
1373.7	285.718
1375.3	304.766
1376.9	196.828
1378.5	304.766
1380.1	339.687
1381.71	203.178
1383.31	228.575
1384.91	212.701
1386.51	174.606
1388.11	238.099
1389.71	152.383
1391.31	241.273
1392.91	225.4
1394.51	203.178
1396.11	215.876
1397.71	126.986
1399.31	222.225
1400.91	274.29
1402.51	193.019
1404.11	219.686
1405.71	176.51
1407.31	247.623
1408.9	175.876
1410.5	218.416
1412.1	197.463
1413.7	144.764
1415.3	193.654
1416.9	250.797
1418.5	190.479
1420.1	168.256
1421.69	231.749
1423.29	171.431
1424.89	209.527
1426.48	168.256
1428.08	187.304
1429.68	206.352
1431.28	165.082
1432.87	250.797
1434.47	168.256
1436.07	241.273
1437.66	193.654
1439.26	231.749
1440.86	155.558
1442.46	228.575
1444.05	219.051
1445.65	222.225
1447.24	295.242
1448.84	295.242
1450.43	196.828
1452.03	247.623
1453.62	231.749
1455.22	215.876
1456.82	250.797
1458.41	165.082
1460	228.575
1461.6	298.417
1463.19	285.718
1464.79	222.225
1466.38	222.225
1467.98	120.637
1469.57	158.732
1471.17	311.116
1472.76	209.527
1474.35	215.876
1475.94	250.797
1477.54	200.003
1479.13	171.431
1480.72	200.003
1482.32	234.924
1483.91	206.352
1485.5	234.924
1487.1	219.051
1488.69	155.558
1490.28	193.654
1491.88	244.448
1493.47	234.924
1495.06	184.13
1496.65	228.575
1498.24	219.051
1499.83	193.654
1501.42	311.116
1503.02	203.178
1504.61	177.78
1506.2	206.352
1507.79	155.558
1509.38	187.304
1510.97	177.78
1512.56	212.701
1514.15	200.003
1515.74	203.178
1517.33	215.876
1518.92	209.527
1520.51	234.924
1522.1	184.13
1523.69	253.972
1525.28	228.575
1526.87	174.606
1528.46	253.972
1530.05	266.67
1531.64	244.448
1533.23	234.924
1534.82	238.099
1536.41	247.623
1537.99	234.924
1539.58	244.448
1541.17	228.575
1542.76	196.828
1544.35	253.972
1545.93	311.116
1547.52	269.845
1549.11	336.513
1550.7	336.513
1552.28	244.448
1553.87	314.29
1555.46	244.448
1557.05	307.941
1558.63	374.609
1560.22	374.609
1561.81	219.051
1563.39	260.321
1564.98	415.879
1566.56	301.592
1568.15	365.085
1569.74	307.941
1571.32	352.386
1572.91	358.735
1574.5	403.18
1576.08	380.958
1577.67	346.037
1579.25	438.102
1580.84	361.91
1582.42	476.197
1584.01	365.085
1585.59	419.054
1587.18	415.879
1588.76	482.547
1590.34	517.468
1591.93	463.499
1593.51	460.324
1595.1	488.896
1596.68	368.259
1598.26	444.451
1599.85	565.087
1601.43	514.293
1603.01	507.944
1604.6	587.31
1606.18	530.166
1607.76	568.262
1609.35	438.102
1610.93	504.769
1612.51	526.992
1614.09	590.485
1615.68	479.372
1617.26	549.214
1618.84	492.071
1620.42	501.594
1622.01	428.578
1623.59	434.927
1625.17	365.085
1626.75	346.037
1628.33	371.434
1629.91	339.687
1631.49	320.64
1633.07	333.338
1634.65	273.02
1636.24	336.513
1637.82	320.64
1639.39	339.687
1640.98	317.465
1642.56	304.766
1644.14	307.941
1645.72	215.876
1647.3	317.465
1648.87	298.417
1650.45	400.006
1652.03	266.67
1653.61	282.544
1655.19	342.862
1656.77	307.941
1658.35	225.4
1659.93	317.465
1661.51	384.132
1663.09	342.862
1664.66	307.941
1666.24	311.116
1667.82	374.609
1669.4	330.163
1670.98	320.64
1672.55	342.862
1674.13	298.417
1675.71	253.972
1677.29	263.496
1678.86	368.259
1680.44	336.513
1682.02	241.273
1683.59	273.02
1685.17	301.592
1686.75	304.766
1688.33	203.178
1689.9	250.797
1691.48	263.496
1693.05	234.924
1694.63	203.178
1696.21	149.208
1697.78	152.383
1699.36	184.13
1700.93	168.256
1702.51	130.161
1704.08	228.575
1705.66	196.828
1707.23	279.369
1708.81	171.431
1710.38	247.623
1711.96	212.701
1713.53	161.907
1715.1	139.685
1716.68	165.082
1718.25	184.13
1719.83	139.685
1721.4	165.082
1722.97	117.462
1724.55	133.335
1726.12	184.13
1727.69	114.287
1729.27	180.955
1730.84	130.161
1732.41	231.749
1733.99	139.685
1735.56	126.986
1737.13	101.589
1738.7	123.811
1740.28	117.462
1741.85	155.558
1743.42	31.7465
1744.99	193.654
1746.56	133.335
1748.14	120.637
1749.71	133.335
1751.28	123.811
1752.85	152.383
1754.42	120.637
1755.99	142.859
1757.56	73.0169
1759.14	107.938
1760.71	79.3662
1762.28	117.462
1763.85	95.2395
1765.42	123.811
1766.99	82.5409
1768.56	88.8902
1770.13	126.986
1771.7	98.4141
1773.26	126.986
1774.83	149.208
1776.4	111.113
1777.97	88.8902
1779.54	82.5409
1781.11	15.8732
1782.68	126.986
1784.25	60.3183
1785.82	155.558
1787.38	98.4141
1788.96	111.113
1790.52	136.51
1792.09	85.7155
1793.66	92.0648
1795.23	38.0958
1796.8	133.335
1798.36	123.811
1799.93	111.113
1801.5	85.7155
1803.07	28.5718
1804.63	82.5409
1806.2	142.859
1807.77	98.4141
1809.33	133.335
1810.9	111.113
1812.47	63.493
1814.03	123.811
1815.6	79.3662
1817.16	66.6676
1818.73	95.2395
1820.29	31.7465
1821.86	66.6676
1823.43	38.0958
1824.99	107.938
1826.56	69.8423
1828.12	88.8902
1829.69	139.685
1831.25	95.2395
1832.82	146.034
1834.38	117.462
1835.95	139.685
1837.51	101.589
1839.08	98.4141
1840.64	76.1916
1842.21	114.287
1843.77	107.938
1845.33	76.1916
1846.9	69.8423
1848.46	95.2395
1850.02	142.859
1851.59	117.462
1853.15	149.208
1854.71	161.907
1856.28	92.0648
1857.84	114.287
1859.4	95.2395
1860.96	63.493
1862.53	114.287
1864.09	101.589
1865.65	139.685
1867.21	120.637
1868.78	130.161
1870.34	85.7155
1871.9	146.034
1873.46	63.493
1875.02	101.589
1876.58	82.5409
1878.14	101.589
1879.71	126.986
1881.26	111.113
1882.83	69.8423
1884.39	92.0648
1885.95	95.2395
1887.51	142.859
1889.07	92.0648
1890.63	136.51
1892.19	101.589
1893.75	111.113
1895.31	136.51
1896.87	88.8902
1898.43	114.287
1899.99	38.0958
1901.55	98.4141
1903.11	92.0648
1904.67	88.8902
1906.22	85.7155
1907.78	95.2395
1909.34	53.969
1910.9	133.335
1912.46	79.3662
1914.02	82.5409
1915.58	174.606
1917.13	114.287
1918.69	117.462
1920.25	76.1916
1921.81	82.5409
1923.37	85.7155
1924.92	133.335
1926.48	152.383
1928.04	101.589
1929.59	107.938
1931.15	123.811
1932.71	146.034
1934.26	158.732
1935.82	107.938
1937.38	123.811
1938.93	152.383
1940.49	79.3662
1942.05	79.3662
1943.6	25.3972
1945.16	95.2395
1946.71	114.287
1948.27	142.859
1949.82	95.2395
1951.38	95.2395
1952.94	149.208
1954.49	104.763
1956.05	107.938
1957.6	63.493
1959.15	149.208
1960.71	60.3183
1962.27	44.4451
1963.82	98.4141
1965.37	133.335
1966.93	133.335
1968.48	101.589
1970.03	142.859
1971.59	117.462
1973.14	139.685
1974.7	107.938
1976.25	168.256
1977.8	107.938
1979.36	50.7944
1980.91	85.7155
1982.46	155.558
1984.01	88.8902
1985.57	146.034
1987.12	50.7944
1988.67	66.6676
1990.22	130.161
1991.78	85.7155
1993.33	111.113
1994.88	120.637
1996.43	22.2225
1997.98	82.5409
1999.53	101.589
2001.09	152.383
2002.64	95.2395
2004.19	117.462
2005.74	53.969
2007.29	107.938
2008.84	155.558
2010.39	73.0169
2011.94	98.4141
2013.49	66.6676
2015.04	161.907
2016.59	92.0648
2018.14	76.1916
2019.69	69.8423
2021.24	142.859
2022.79	146.034
2024.34	101.589
2025.89	104.763
2027.44	111.113
2028.99	126.986
2030.54	25.3972
2032.09	107.938
2033.64	152.383
2035.19	111.113
2036.73	104.763
2038.28	133.335
2039.83	168.256
2041.38	120.637
2042.93	123.811
2044.47	123.811
2046.02	155.558
2047.57	120.637
2049.12	174.606
2050.67	60.3183
2052.21	177.78
2053.76	107.938
2055.31	82.5409
2056.85	53.969
2058.4	130.161
2059.95	149.208
2061.49	126.986
2063.04	79.3662
2064.59	69.8423
2066.13	107.938
2067.68	101.589
2069.23	88.8902
2070.77	104.763
2072.32	149.208
2073.86	130.161
2075.41	107.938
2076.95	63.493
2078.5	107.938
2080.04	82.5409
2081.59	158.732
2083.13	155.558
2084.68	31.7465
2086.22	76.1916
2087.77	117.462
2089.31	79.3662
2090.86	142.859
2092.4	95.2395
2093.94	82.5409
2095.49	184.13
2097.03	114.287
2098.57	88.8902
2100.12	88.8902
2101.66	88.8902
2103.2	117.462
2104.75	120.637
2106.29	82.5409
2107.83	73.0169
2109.38	136.51
2110.92	82.5409
2112.46	88.8902
2114	85.7155
2115.55	120.637
2117.09	85.7155
2118.63	158.732
2120.17	63.493
2121.71	146.034
2123.26	98.4141
2124.8	126.986
2126.34	174.606
2127.88	126.986
2129.42	139.685
2130.96	126.986
2132.5	180.955
2134.04	117.462
2135.58	92.0648
2137.13	120.637
2138.67	117.462
2140.2	101.589
2141.75	142.859
2143.29	180.955
2144.82	171.431
2146.36	136.51
2147.91	155.558
2149.44	193.654
2150.98	117.462
2152.52	107.938
2154.06	139.685
2155.6	79.3662
2157.14	104.763
2158.68	168.256
2160.22	136.51
2161.76	101.589
2163.29	168.256
2164.83	120.637
2166.37	114.287
2167.91	117.462
2169.45	142.859
2170.99	98.4141
2172.52	76.1916
2174.06	139.685
2175.6	165.082
2177.14	66.6676
2178.67	161.907
2180.21	152.383
2181.75	149.208
2183.28	187.304
2184.82	95.2395
2186.36	111.113
2187.89	152.383
2189.43	146.034
2190.97	126.986
2192.5	149.208
2194.04	123.811
2195.57	66.6676
2197.11	88.8902
2198.65	171.431
2200.18	126.986
2201.72	111.113
2203.25	136.51
2204.79	111.113
2206.32	133.335
2207.86	73.0169
2209.39	41.2704
2210.93	60.3183
2212.46	126.986
2213.99	158.732
2215.53	123.811
2217.06	187.304
2218.6	130.161
2220.13	142.859
2221.67	146.034
2223.2	126.986
2224.73	104.763
2226.26	69.8423
2227.8	126.986
2229.33	95.2395
2230.87	225.4
2232.4	63.493
2233.93	136.51
2235.46	76.1916
2237	95.2395
2238.53	92.0648
2240.06	126.986
2241.59	133.335
2243.12	44.4451
2244.66	107.938
2246.19	139.685
2247.72	158.732
2249.25	152.383
2250.78	139.685
2252.32	123.811
2253.85	126.986
2255.38	193.654
2256.91	149.208
2258.44	76.1916
2259.97	158.732
2261.5	117.462
2263.03	76.1916
2264.56	152.383
2266.09	73.0169
2267.62	101.589
2269.15	69.8423
2270.68	152.383
2272.21	120.637
2273.74	136.51
2275.27	88.8902
2276.8	126.986
2278.33	133.335
2279.86	92.0648
2281.39	130.161
2282.92	76.1916
2284.45	98.4141
2285.98	111.113
2287.5	126.986
2289.03	98.4141
2290.56	101.589
2292.09	117.462
2293.62	146.034
2295.15	152.383
2296.67	130.161
2298.2	114.287
2299.73	130.161
2301.25	155.558
2302.78	130.161
2304.31	104.763
2305.84	136.51
2307.36	133.335
2308.89	146.034
2310.42	15.8732
2311.94	158.732
2313.47	120.637
2315	101.589
2316.52	69.8423
2318.05	117.462
2319.58	139.685
2321.1	152.383
2322.63	123.811
2324.15	200.003
2325.68	117.462
2327.2	146.034
2328.73	136.51
2330.25	63.493
2331.78	222.225
2333.3	73.0169
2334.83	174.606
2336.35	174.606
2337.88	190.479
2339.4	139.685
2340.93	184.13
2342.45	180.955
2343.97	88.8902
2345.5	158.732
2347.02	101.589
2348.55	111.113
2350.07	171.431
2351.59	114.287
2353.12	114.287
2354.64	161.907
2356.16	152.383
2357.69	95.2395
2359.21	158.732
2360.73	53.969
2362.25	130.161
2363.78	104.763
2365.3	161.907
2366.82	82.5409
2368.34	73.0169
2369.87	139.685
2371.39	133.335
2372.91	73.0169
2374.43	111.113
2375.95	139.685
2377.47	111.113
2378.99	117.462
2380.52	44.4451
2382.04	139.685
2383.56	155.558
2385.08	155.558
2386.6	126.986
2388.12	88.8902
2389.64	53.969
2391.16	107.938
2392.68	171.431
2394.2	85.7155
2395.72	117.462
2397.24	57.1437
2398.76	136.51
2400.28	85.7155
2401.8	38.0958
2403.32	111.113
2404.84	171.431
2406.36	146.034
2407.88	57.1437
2409.4	203.178
2410.91	123.811
2412.43	38.0958
2413.95	120.637
2415.47	111.113
2416.99	107.938
2418.51	95.2395
2420.02	114.287
2421.54	111.113
2423.06	88.8902
2424.58	142.859
2426.09	114.287
2427.61	126.986
2429.13	107.938
2430.65	101.589
2432.16	161.907
2433.68	147.939
2435.2	124.446
2436.71	132.7
2438.23	67.9375
2439.75	133.335
2441.26	106.668
2442.78	48.2547
2444.3	116.827
2445.81	36.191
2447.33	53.969
2448.84	120.637
2450.36	104.763
2451.88	130.161
2453.39	66.6676
2454.91	120.637
2456.42	152.383
2457.94	82.5409
2459.45	142.859
2460.97	114.287
2462.48	104.763
2464	158.732
2465.51	158.732
2467.02	117.462
2468.54	165.082
2470.05	98.4141
2471.57	130.161
2473.08	126.986
2474.59	133.335
2476.11	114.287
2477.62	101.589
2479.13	133.335
2480.65	133.335
2482.16	149.208
2483.67	88.8902
2485.19	69.8423
2486.7	152.383
2488.21	117.462
2489.72	123.811
2491.24	117.462
2492.75	136.51
2494.26	152.383
2495.77	123.811
2497.28	158.732
2498.8	158.732
2500.31	107.938
2501.82	142.859
2503.33	95.2395
2504.84	126.986
2506.35	82.5409
2507.86	79.3662
2509.38	107.938
2510.89	73.0169
2512.4	98.4141
2513.91	152.383
2515.42	101.589
2516.93	120.637
2518.44	187.304
2519.95	50.7944
2521.46	76.1916
2522.97	104.763
2524.48	133.335
2525.99	152.383
2527.5	114.287
2529.01	107.938
2530.52	76.1916
2532.03	139.685
2533.53	161.907
2535.04	161.907
2536.55	120.637
2538.06	180.955
2539.57	98.4141
2541.08	165.082
2542.59	53.969
2544.09	174.606
2545.6	206.352
2547.11	146.034
2548.62	168.256
2550.13	203.178
2551.63	133.335
2553.14	123.811
2554.65	152.383
2556.16	104.763
2557.66	126.986
2559.17	187.304
2560.68	168.256
2562.18	158.732
2563.69	88.8902
2565.2	104.763
2566.7	133.335
2568.21	79.3662
2569.72	117.462
2571.22	95.2395
2572.73	85.7155
2574.23	95.2395
2575.74	126.986
2577.25	136.51
2578.75	215.876
2580.26	158.732
2581.76	171.431
2583.27	57.1437
2584.77	126.986
2586.28	76.1916
2587.78	152.383
2589.29	120.637
2590.79	209.527
2592.29	142.859
2593.8	165.082
2595.3	126.986
2596.81	101.589
2598.31	130.161
2599.81	111.113
2601.32	101.589
2602.82	139.685
2604.33	136.51
2605.83	146.034
2607.33	120.637
2608.84	158.732
2610.34	142.859
2611.84	165.082
2613.34	114.287
2614.85	136.51
2616.35	146.034
2617.85	177.78
2619.35	174.606
2620.86	133.335
2622.36	76.1916
2623.86	136.51
2625.36	98.4141
2626.86	149.208
2628.36	155.558
2629.87	136.51
2631.37	130.161
2632.87	92.0648
2634.37	165.082
2635.87	142.859
2637.37	101.589
2638.87	101.589
2640.37	146.034
2641.87	133.335
2643.38	88.8902
2644.87	161.907
2646.37	168.256
2647.87	142.859
2649.37	120.637
2650.88	177.78
2652.37	142.859
2653.87	123.811
2655.37	95.2395
2656.87	193.654
2658.37	126.986
2659.87	155.558
2661.37	69.8423
2662.87	155.558
2664.37	126.986
2665.86	161.907
2667.36	142.859
2668.86	142.859
2670.36	168.256
2671.86	161.907
2673.36	120.637
2674.85	158.732
2676.35	177.78
2677.85	155.558
2679.35	180.955
2680.85	165.082
2682.34	146.034
2683.84	155.558
2685.34	133.335
2686.83	149.208
2688.33	139.685
2689.83	184.13
2691.32	155.558
2692.82	126.986
2694.32	107.938
2695.81	171.431
2697.31	177.78
2698.8	95.2395
2700.3	165.082
2701.8	136.51
2703.29	190.479
2704.79	126.986
2706.28	76.1916
2707.78	123.811
2709.27	120.637
2710.77	133.335
2712.26	193.654
2713.76	165.082
2715.25	139.685
2716.75	139.685
2718.24	130.161
2719.74	126.986
2721.23	146.034
2722.72	107.938
2724.22	114.287
2725.71	142.859
2727.21	95.2395
2728.7	149.208
2730.19	180.955
2731.69	152.383
2733.18	123.811
2734.67	234.924
2736.17	133.335
2737.66	203.178
2739.15	146.034
2740.64	155.558
2742.14	133.335
2743.63	114.287
2745.12	104.763
2746.61	111.113
2748.11	187.304
2749.6	171.431
2751.09	168.256
2752.58	101.589
2754.07	209.527
2755.57	142.859
2757.06	142.859
2758.55	107.938
2760.04	177.78
2761.53	120.637
2763.02	149.208
2764.51	171.431
2766	206.352
2767.49	120.637
2768.98	155.558
2770.47	184.13
2771.96	152.383
2773.45	155.558
2774.94	212.701
2776.43	101.589
2777.92	231.749
2779.41	146.034
2780.9	130.161
2782.39	111.113
2783.88	180.955
2785.37	171.431
2786.86	168.256
2788.35	203.178
2789.84	95.2395
2791.33	133.335
2792.81	120.637
2794.3	117.462
2795.79	136.51
2797.28	107.938
2798.77	126.986
2800.26	209.527
2801.74	171.431
2803.23	212.701
2804.72	120.637
2806.21	136.51
2807.69	212.701
2809.18	177.78
2810.67	73.0169
2812.15	139.685
2813.64	177.78
2815.13	200.003
2816.62	171.431
2818.1	184.13
2819.59	149.208
2821.07	98.4141
2822.56	152.383
2824.05	155.558
2825.53	165.082
2827.02	225.4
2828.5	177.78
2829.99	196.828
2831.48	200.003
2832.96	222.225
2834.45	231.749
2835.93	155.558
2837.42	165.082
2838.9	155.558
2840.39	200.003
2841.87	139.685
2843.36	95.2395
2844.84	171.431
2846.32	200.003
2847.81	253.972
2849.29	200.003
2850.78	228.575
2852.26	152.383
2853.75	206.352
2855.23	155.558
2856.71	193.654
2858.2	184.13
2859.68	133.335
2861.16	228.575
2862.65	219.051
2864.13	190.479
2865.61	190.479
2867.09	149.208
2868.58	234.924
2870.06	136.51
2871.54	184.13
2873.02	273.02
2874.51	196.828
2875.99	200.003
2877.47	177.78
2878.95	158.732
2880.44	225.4
2881.91	155.558
2883.4	288.893
2884.88	215.876
2886.36	161.907
2887.84	241.273
2889.32	238.099
2890.8	187.304
2892.28	215.876
2893.76	133.335
2895.24	152.383
2896.73	177.78
2898.2	253.972
2899.69	190.479
2901.17	238.099
2902.65	206.352
2904.13	174.606
2905.6	250.797
2907.08	250.797
2908.56	174.606
2910.04	238.099
2911.52	241.273
2913	187.304
2914.48	244.448
2915.96	206.352
2917.44	206.352
2918.92	276.194
2920.4	231.749
2921.87	307.941
2923.35	228.575
2924.83	279.369
2926.31	247.623
2927.79	282.544
2929.27	244.448
2930.74	203.178
2932.22	200.003
2933.7	279.369
2935.18	212.701
2936.65	257.147
2938.13	247.623
2939.61	285.718
2941.08	279.369
2942.56	282.544
2944.04	209.527
2945.51	206.352
2946.99	288.893
2948.46	276.194
2949.94	288.893
2951.42	295.242
2952.89	282.544
2954.37	282.544
2955.85	298.417
2957.32	298.417
2958.8	301.592
2960.27	333.338
2961.75	250.797
2963.22	377.783
2964.7	231.749
2966.17	307.941
2967.65	333.338
2969.12	292.068
2970.6	323.814
2972.07	320.64
2973.54	285.718
2975.02	253.972
2976.49	311.116
2977.97	279.369
2979.44	266.67
2980.92	292.068
2982.39	326.989
2983.86	250.797
2985.34	311.116
2986.81	285.718
2988.28	323.814
2989.76	349.211
2991.23	314.29
2992.7	330.163
2994.17	282.544
2995.65	336.513
2997.12	298.417
2998.59	304.766
3000.07	250.797
3001.54	326.989
3003.01	323.814
3004.48	371.434
3005.95	380.958
3007.43	298.417
3008.9	346.037
3010.37	396.831
3011.84	447.625
3013.31	320.64
3014.78	323.814
3016.25	349.211
3017.72	422.228
3019.19	276.194
3020.67	438.102
3022.14	485.721
3023.6	444.451
3025.08	441.276
3026.55	438.102
3028.02	422.228
3029.49	295.242
3030.96	393.656
3032.43	453.975
3033.9	457.149
3035.37	403.18
3036.83	352.386
3038.31	428.578
3039.77	425.403
3041.24	434.927
3042.71	463.499
3044.18	488.896
3045.65	425.403
3047.12	469.848
3048.58	504.769
3050.06	511.118
3051.52	526.992
3052.99	574.611
3054.46	498.42
3055.93	479.372
3057.39	555.563
3058.86	530.166
3060.33	476.197
3061.8	558.738
3063.27	526.992
3064.73	571.437
3066.2	530.166
3067.67	596.834
3069.13	523.817
3070.6	485.721
3072.07	660.327
3073.53	542.865
3075	577.786
3076.47	647.628
3077.93	657.152
3079.4	666.676
3080.86	549.214
3082.33	657.152
3083.8	622.231
3085.26	631.755
3086.73	574.611
3088.19	660.327
3089.66	590.485
3091.12	765.09
3092.59	631.755
3094.05	628.58
3095.52	730.169
3096.98	619.056
3098.45	685.724
3099.91	634.93
3101.38	676.2
3102.84	682.549
3104.3	723.82
3105.77	733.344
3107.23	726.995
3108.69	768.265
3110.16	723.82
3111.62	695.248
3113.09	714.296
3114.55	752.392
3116.01	784.138
3117.48	739.693
3118.94	863.504
3120.4	787.313
3121.86	733.344
3123.33	714.296
3124.79	841.282
3126.25	904.775
3127.72	815.885
3129.18	841.282
3130.64	1025.41
3132.1	1063.51
3133.56	1038.11
3135.02	879.378
3136.49	834.933
3137.95	796.837
3139.41	847.631
3140.87	917.473
3142.33	920.648
3143.79	885.727
3145.25	942.871
3146.71	990.49
3148.17	946.045
3149.63	984.141
3151.09	1006.36
3152.56	898.426
3154.02	1222.24
3155.48	923.823
3156.94	1041.28
3158.4	1136.52
3159.86	1044.46
3161.31	1076.21
3162.77	1066.68
3164.23	1146.05
3165.69	1069.86
3167.15	977.792
3168.61	1222.24
3170.07	1120.65
3171.53	1161.92
3172.99	1123.83
3174.45	1107.95
3175.91	1092.08
3177.36	1174.62
3178.82	1196.84
3180.28	1158.75
3181.74	1165.1
3183.2	1098.43
3184.66	1234.94
3186.11	1200.02
3187.57	1152.4
3189.03	1234.94
3190.48	1282.56
3191.94	1250.81
3193.4	1174.62
3194.86	1323.83
3196.31	1304.78
3197.77	1307.96
3199.23	1311.13
3200.68	1273.03
3202.14	1253.99
3203.6	1400.02
3205.05	1457.16
3206.51	1307.96
3207.96	1422.24
3209.42	1415.89
3210.88	1355.57
3212.33	1307.96
3213.79	1396.85
3215.24	1244.46
3216.7	1431.77
3218.15	1453.99
3219.61	1384.15
3221.06	1339.7
3222.52	1400.02
3223.97	1371.45
3225.43	1323.83
3226.88	1396.85
3228.34	1568.28
3229.79	1374.62
3231.25	1520.66
3232.7	1444.47
3234.15	1457.16
3235.61	1298.43
3237.06	1406.37
3238.52	1431.77
3239.97	1317.48
3241.42	1438.12
3242.88	1466.69
3244.33	1466.69
3245.78	1574.63
3247.23	1749.23
3248.69	1761.93
3250.14	1380.97
3251.59	1400.02
3253.04	1409.54
3254.5	1593.67
3255.95	1511.13
3257.4	1400.02
3258.86	1419.07
3260.31	1438.12
3261.76	1320.65
3263.21	1431.77
3264.66	1482.56
3266.11	1584.15
3267.56	1406.37
3269.02	1447.64
3270.47	1580.97
3271.92	1482.56
3273.37	1422.24
3274.82	1438.12
3276.27	1568.28
3277.72	1533.36
3279.17	1622.25
3280.62	1533.36
3282.07	1533.36
3283.52	1609.55
3284.97	1517.48
3286.42	1485.74
3287.87	1393.67
3289.32	1415.89
3290.77	1539.7
3292.22	1463.51
3293.67	1469.86
3295.12	1565.1
3296.57	1549.23
3298.02	1587.32
3299.47	1593.67
3300.91	1457.16
3302.36	1514.31
3303.81	1565.1
3305.26	1568.28
3306.71	1536.53
3308.16	1628.59
3309.61	1603.2
3311.05	1542.88
3312.5	1561.93
3313.95	1463.51
3315.4	1590.5
3316.84	1568.28
3318.29	1539.7
3319.74	1558.75
3321.18	1482.56
3322.63	1533.36
3324.08	1463.51
3325.53	1631.77
3326.97	1482.56
3328.42	1492.08
3329.87	1523.83
3331.31	1485.74
3332.76	1469.86
3334.21	1542.88
3335.65	1577.8
3337.1	1577.8
3338.54	1600.02
3339.99	1561.93
3341.43	1590.5
3342.88	1396.85
3344.32	1561.93
3345.77	1323.83
3347.21	1660.34
3348.66	1536.53
3350.11	1663.52
3351.55	1650.82
3353	1631.77
3354.44	1695.26
3355.88	1828.6
3357.33	1723.83
3358.77	1622.25
3360.22	1609.55
3361.66	1498.43
3363.1	1517.48
3364.55	1647.64
3365.99	1660.34
3367.44	1733.36
3368.88	1600.02
3370.32	1714.31
3371.77	1568.28
3373.21	1587.32
3374.65	1707.96
3376.09	1685.74
3377.54	1765.1
3378.98	1730.18
3380.42	1733.36
3381.86	1549.23
3383.31	1660.34
3384.75	1625.42
3386.19	1596.85
3387.63	1603.2
3389.07	1631.77
3390.52	1749.23
3391.96	1701.61
3393.4	1698.44
3394.84	1695.26
3396.28	1755.58
3397.73	1676.21
3399.17	1695.26
3400.61	1695.26
3402.05	1666.69
3403.49	1641.29
3404.93	1660.34
3406.37	1641.29
3407.81	1704.79
3409.25	1765.1
3410.69	1495.26
3412.13	1549.23
3413.57	1717.48
3415.01	1714.31
3416.45	1673.04
3417.89	1596.85
3419.33	1796.85
3420.77	1676.21
3422.21	1606.37
3423.65	1536.53
3425.09	1574.63
3426.53	1647.64
3427.96	1650.82
3429.4	1552.4
3430.84	1520.66
3432.28	1669.87
3433.72	1612.72
3435.16	1571.45
3436.59	1609.55
3438.03	1596.85
3439.47	1631.77
3440.91	1555.58
3442.35	1527.01
3443.79	1514.31
3445.22	1428.59
3446.66	1622.25
3448.1	1542.88
3449.53	1457.16
3450.97	1498.43
3452.41	1396.85
3453.85	1495.26
3455.28	1603.2
3456.72	1536.53
3458.15	1419.07
3459.59	1520.66
3461.03	1520.66
3462.46	1482.56
3463.9	1504.78
3465.34	1504.78
3466.77	1384.15
3468.21	1434.94
3469.64	1530.18
3471.08	1492.08
3472.51	1447.64
3473.95	1425.42
3475.38	1355.57
3476.82	1434.94
3478.25	1279.38
3479.69	1215.89
3481.12	1400.02
3482.56	1415.89
3483.99	1365.1
3485.43	1342.88
3486.86	1368.27
3488.3	1285.73
3489.73	1323.83
3491.16	1339.7
3492.6	1438.12
3494.03	1234.94
3495.47	1257.16
3496.9	1095.25
3498.33	1184.14
3499.77	1250.81
3501.2	1342.88
3502.63	1184.14
3504.06	1098.43
3505.5	1177.79
3506.93	1161.92
3508.36	1269.86
3509.8	1250.81
3511.23	1250.81
3512.66	1184.14
3514.09	1238.11
3515.52	1314.3
3516.96	1212.72
3518.39	1111.13
3519.82	1171.45
3521.25	1149.22
3522.68	1171.45
3524.11	1028.59
3525.55	1304.78
3526.98	1031.76
3528.41	1006.36
3529.84	1019.06
3531.27	968.268
3532.7	1057.16
3534.13	1009.54
3535.56	1079.38
3536.99	1044.46
3538.42	895.251
3539.85	1034.94
3541.28	1019.06
3542.71	904.775
3544.14	936.521
3545.57	987.316
3547	1028.59
3548.43	933.347
3549.86	901.6
3551.29	939.696
3552.72	1066.68
3554.15	898.426
3555.58	965.093
3557.01	901.6
3558.44	876.203
3559.86	914.299
3561.29	923.823
3562.72	838.107
3564.15	768.265
3565.58	857.155
3567.01	879.378
3568.43	901.6
3569.86	949.22
3571.29	822.234
3572.71	739.693
3574.14	780.964
3575.57	812.71
3577	882.552
3578.42	777.789
3579.85	771.44
3581.28	765.09
3582.71	800.011
3584.13	895.251
3585.56	873.028
3586.99	746.042
3588.41	590.485
3589.84	685.724
3591.26	711.121
3592.69	688.899
3594.12	701.597
3595.54	707.947
3596.97	746.042
3598.39	828.583
3599.82	771.44
3601.25	669.851
3602.67	695.248
3604.09	590.485
3605.52	612.707
3606.94	739.693
3608.37	752.392
3609.8	669.851
3611.22	663.502
3612.65	733.344
3614.07	673.026
3615.49	565.087
3616.92	571.437
3618.34	561.913
3619.77	619.056
3621.19	704.772
3622.61	546.04
3624.04	615.882
3625.46	647.628
3626.88	580.961
3628.31	555.563
3629.73	555.563
3631.15	647.628
3632.58	530.166
3634	587.31
3635.42	596.834
3636.84	504.769
3638.27	520.642
3639.69	558.738
3641.11	498.42
3642.53	552.389
3643.95	501.594
3645.38	447.625
3646.8	507.944
3648.22	425.403
3649.64	488.896
3651.06	526.992
3652.49	419.054
3653.91	371.434
3655.33	444.451
3656.75	428.578
3658.17	447.625
3659.59	469.848
3661.01	415.879
3662.43	412.704
3663.85	415.879
3665.27	390.482
3666.69	419.054
3668.11	320.64
3669.53	352.386
3670.95	346.037
3672.37	342.862
3673.8	400.006
3675.21	393.656
3676.63	234.924
3678.05	292.068
3679.47	311.116
3680.89	273.02
3682.31	260.321
3683.73	273.02
3685.15	276.194
3686.57	304.766
3687.99	282.544
3689.4	234.924
3690.82	222.225
3692.24	171.431
3693.66	257.147
3695.08	203.178
3696.5	206.352
3697.91	57.1437
3699.33	165.082
3700.75	298.417
3702.17	130.161
3703.58	193.654
3705	209.527
3706.42	155.558
3707.84	146.034
3709.25	161.907
3710.67	139.685
3712.09	174.606
3713.5	203.178
3714.92	212.701
3716.34	206.352
3717.75	146.034
3719.17	149.208
3720.59	165.082
3722	212.701
3723.42	130.161
3724.83	107.938
3726.25	126.986
3727.66	219.051
3729.08	174.606
3730.5	142.859
3731.91	158.732
3733.33	149.208
3734.74	130.161
3736.16	88.8902
3737.57	165.082
3738.99	130.161
3740.4	152.383
3741.81	95.2395
3743.23	88.8902
3744.64	57.1437
3746.06	146.034
3747.47	101.589
3748.89	130.161
3750.3	146.034
3751.71	136.51
3753.13	47.6197
3754.54	120.637
3755.95	158.732
3757.37	98.4141
3758.78	142.859
3760.19	126.986
3761.61	133.335
3763.02	98.4141
3764.43	107.938
3765.84	88.8902
3767.26	41.2704
3768.67	41.2704
3770.08	174.606
3771.49	114.287
3772.91	149.208
3774.32	69.8423
3775.73	104.763
3777.14	165.082
3778.55	85.7155
3779.96	123.811
3781.38	38.0958
3782.79	63.493
3784.2	136.51
3785.61	123.811
3787.02	98.4141
3788.43	44.4451
3789.84	82.5409
3791.26	76.1916
3792.67	57.1437
3794.07	31.7465
3795.49	63.493
3796.9	73.0169
3798.31	66.6676
3799.72	60.3183
3801.13	152.383
3802.53	139.685
3803.95	114.287
3805.35	82.5409
3806.76	123.811
3808.17	142.859
3809.58	9.52395
3810.99	152.383
3812.4	126.986
3813.81	79.3662
3815.22	98.4141
3816.63	111.113
3818.04	161.907
3819.44	123.811
3820.85	114.287
3822.26	117.462
3823.67	79.3662
3825.08	47.6197
3826.49	12.6986
3827.89	120.637
3829.3	66.6676
3830.71	111.113
3832.12	107.938
3833.52	130.161
3834.93	25.3972
3836.34	50.7944
3837.75	76.1916
3839.15	104.763
3840.56	82.5409
3841.97	82.5409
3843.37	82.5409
3844.78	82.5409
3846.19	107.938
3847.59	142.859
3849	104.763
3850.41	88.8902
